3.52
3.55
3.49
3.37
3.36
3.19
3.11
3.21
3.11
2.87
2.77
4.59
5.0
5.0
3.52
2.25
2.44
2.93
2.74
2.81
2.83
2.76
2.91
2.83
2.91
2.97
2.86
2.96
2.89
2.88
2.93
2.82
2.93
2.94
3.01
3.13
3.12
3.23
3.31
3.24
3.34
3.28
3.33
3.29
3.27
3.32
3.16
3.24
3.19
3.15
3.23
3.16
3.15
3.23
3.11
3.17
3.12
3.09
3.21
3.12
3.3
3.5
3.38
3.46
3.15
3.15
3.05
2.94
3.07
2.77
2.55
3.25
5.0
5.0
4.35
2.36
2.12
2.5
2.71
2.6
2.6
2.71
2.61
2.71
2.71
2.71
2.81
2.7
2.73
2.78
2.56
2.67
2.61
2.7
2.71
2.74
2.99
3.0
3.06
3.11
3.12
3.28
3.2
3.17
3.26
3.13
3.23
3.16
3.15
3.19
3.09
3.19
3.16
3.09
3.19
3.08
3.18
3.16
3.07
3.29
3.47
3.46
3.46
3.25
3.25
3.03
3.06
3.16
2.81
2.67
3.42
5.0
5.0
4.35
2.53
2.16
2.61
2.82
2.69
2.79
2.79
2.77
2.89
2.83
2.93
2.96
2.9
3.02
2.88
2.91
2.86
2.85
2.94
2.92
3.06
3.19
3.13
3.26
3.3
3.21
3.35
3.26
3.29
3.3
3.23
3.34
3.25
3.3
3.29
3.25
3.36
3.24
3.32
3.3
3.18
3.25
3.35
3.47
3.54
3.4
3.5
3.26
3.09
3.19
3.12
3.0
2.66
3.05
5.0
5.0
5.0
3.19
2.11
2.72
2.84
2.79
2.88
2.74
2.86
2.83
2.83
2.87
2.78
2.91
2.83
2.78
2.85
2.73
2.83
2.84
2.78
3.02
3.09
3.19
3.2
3.21
3.37
3.25
3.31
3.33
3.24
3.31
3.3
3.24
3.31
3.21
3.33
3.31
3.27
3.34
3.25
3.35
3.46
3.51
3.54
3.35
3.24
3.11
2.99
3.06
2.86
2.5
2.93
5.0
5.0
5.0
2.7
2.03
2.47
2.69
2.56
2.55
2.68
2.57
2.74
2.71
2.69
2.79
2.67
2.78
2.67
2.61
2.71
2.61
2.73
2.79
2.78
2.97
3.03
3.12
3.18
3.11
3.24
3.16
3.17
3.26
3.13
3.24
3.18
3.17
3.2
3.06
3.2
3.15
3.12
3.21
3.15
3.34
3.49
3.32
3.42
3.19
3.09
3.03
2.96
3.03
2.54
2.58
4.81
5.0
5.0
3.3
1.98
2.45
2.67
2.66
2.68
2.66
2.82
2.71
2.83
2.88
2.77
2.91
2.81
2.83
2.83
2.73
2.8
2.77
2.84
2.95
2.92
3.12
3.17
3.18
3.27
3.18
3.32
3.21
3.18
3.3
3.17
3.26
3.24
3.16
3.28
3.19
3.2
3.21
3.21
3.26
3.18
3.21
3.31
3.49
3.61
3.49
3.37
3.4
3.1
3.23
3.14
3.04
2.76
2.93
5.0
5.0
5.0
3.3
2.07
2.7
2.92
2.74
2.87
2.78
2.86
2.89
2.82
2.92
2.85
2.85
2.91
2.79
2.86
2.76
2.79
2.85
2.81
2.97
3.02
3.07
3.21
3.11
3.26
3.19
3.16
3.21
3.14
3.22
3.19
3.11
3.23
3.06
3.13
3.12
3.09
3.15
3.05
3.06
3.12
3.05
3.09
3.02
3.04
3.11
2.97
3.18
3.34
3.28
3.32
3.19
3.12
2.96
2.88
3.02
2.71
2.47
3.26
5.0
5.0
4.16
2.27
2.07
2.44
2.71
2.62
2.71
2.83
2.7
2.85
2.85
2.83
2.93
2.85
2.92
2.86
2.86
2.95
2.93
3.0
3.06
2.99
3.17
3.15
3.28
3.34
3.3
3.38
3.29
3.43
3.33
3.25
3.37
3.3
3.29
3.37
3.35
3.33
3.38
3.3
3.41
3.29
3.29
3.32
3.23
3.38
3.21
3.31
3.25
3.24
3.37
3.23
3.34
3.61
3.49
3.52
3.37
3.29
3.23
3.12
3.24
2.97
2.63
3.55
5.0
5.0
4.81
2.54
2.2
2.65
2.88
2.82
2.77
2.9
2.84
2.88
2.93
2.84
2.93
2.88
2.89
2.9
2.74
2.85
2.78
2.82
2.92
2.91
3.01
3.05
3.1
3.2
3.15
3.26
3.18
3.1
3.25
3.16
3.11
3.2
3.15
3.25
3.16
3.23
3.3
3.16
3.23
3.16
3.15
3.23
3.1
3.12
3.11
3.06
3.21
3.13
3.17
3.14
3.09
3.16
3.12
3.13
3.16
3.06
3.37
3.38
3.27
3.4
3.21
3.11
3.06
3.04
3.07
2.67
2.73
4.64
5.0
5.0
3.26
2.15
2.41
2.77
2.79
2.71
2.77
2.77
2.7
2.83
2.77
2.85
2.92
2.81
2.84
2.77
2.74
2.84
2.81
2.98
2.96
3.02
3.22
3.05
3.24
3.24
3.2
3.33
3.19
3.26
3.29
3.15
3.24
3.13
3.17
3.24
3.17
3.19
3.19
3.16
3.21
3.13
3.19
3.1
3.12
3.19
3.11
3.17
3.14
3.13
3.22
3.09
3.21
3.19
3.12
3.27
3.15
3.23
3.33
3.47
3.53
3.4
3.34
3.26
3.11
3.24
3.15
2.89
2.94
4.4
5.0
5.0
3.53
2.5
2.44
2.97
2.93
2.88
2.95
2.95
2.98
2.96
2.93
3.02
2.94
3.02
3.07
2.97
3.11
3.01
3.05
3.13
3.03
3.18
3.23
3.22
3.35
3.29
3.33
3.32
3.23
3.39
3.19
3.32
3.32
3.24
3.4
3.24
3.37
3.46
3.35
3.46
3.38
3.36
3.49
3.3
3.38
3.31
3.3
3.42
3.25
3.36
3.36
3.34
3.59
3.49
3.54
3.38
3.25
3.29
3.14
3.15
3.01
2.74
3.56
5.0
5.0
3.3
2.91
2.34
2.53
3.01
3.0
3.01
3.09
3.08
3.09
3.2
3.12
3.2
3.23
3.21
3.27
3.21
3.24
3.28
3.2
3.36
3.24
3.33
3.32
3.3
3.4
3.34
3.37
3.42
3.35
3.46
3.33
3.35
3.37
3.31
3.47
3.42
3.36
3.49
3.35
3.36
3.37
3.2
3.3
3.21
3.19
3.16
3.01
3.16
3.05
2.9
3.02
3.04
3.21
3.1
3.13
3.15
2.96
3.03
3.02
2.89
2.84
2.96
4.84
5.0
4.34
3.03
2.32
2.38
2.93
2.79
3.0
2.93
2.99
3.07
2.93
3.09
3.03
3.04
3.1
3.05
3.07
3.09
3.05
3.13
3.06
3.14
3.19
3.13
3.3
3.21
3.31
3.33
3.25
3.35
3.26
3.32
3.33
3.24
3.34
3.33
3.26
3.43
3.42
3.47
3.27
3.21
3.32
3.16
3.24
3.21
3.09
3.16
3.14
3.15
3.31
3.37
3.4
3.27
3.26
3.11
2.97
3.02
2.93
2.84
2.65
3.42
5.0
5.0
4.65
2.1
1.97
2.67
2.68
2.67
2.8
2.67
2.8
2.77
2.71
2.91
2.73
2.86
2.86
2.7
2.83
2.73
2.79
2.86
2.83
3.0
3.01
3.02
3.19
3.1
3.19
3.17
3.2
3.3
3.13
3.29
3.19
3.14
3.24
3.18
3.24
3.27
3.18
3.32
3.2
3.24
3.25
3.17
3.3
3.16
3.19
3.24
3.17
3.36
3.56
3.51
3.6
3.49
3.46
3.23
3.17
3.25
3.11
2.9
2.83
4.88
5.0
5.0
3.54
2.03
2.53
2.97
2.84
2.91
2.97
2.88
3.07
3.03
2.9
3.04
2.92
3.0
2.93
2.86
2.99
2.8
2.92
2.91
3.0
3.15
3.06
3.19
3.24
3.2
3.35
3.2
3.25
3.27
3.17
3.29
3.2
3.21
3.25
3.12
3.25
3.31
3.11
3.26
3.13
3.23
3.19
3.14
3.24
3.11
3.24
3.18
3.17
3.44
3.34
3.47
3.44
3.28
3.25
3.02
3.0
3.07
2.88
2.65
3.14
5.0
5.0
4.87
2.46
2.03
2.58
2.87
2.69
2.81
2.73
2.74
2.87
2.74
2.84
2.88
2.87
2.97
2.76
2.84
2.89
2.79
2.92
2.92
2.97
3.12
3.11
3.3
3.15
3.29
3.36
3.23
3.29
3.26
3.21
3.32
3.17
3.24
3.29
3.25
3.29
3.19
3.29
3.25
3.15
3.29
3.14
3.15
3.23
3.07
3.23
3.18
3.17
3.19
3.15
3.6
3.52
3.38
3.52
3.21
3.17
3.18
3.05
3.07
2.64
3.07
5.0
5.0
5.0
2.81
2.03
2.55
2.71
2.79
2.74
2.74
2.82
2.72
2.83
2.78
2.82
2.91
2.81
2.77
2.73
2.71
2.79
2.73
2.83
2.93
2.87
3.14
3.11
3.24
3.21
3.18
3.3
3.2
3.25
3.26
3.18
3.27
3.2
3.25
3.34
3.19
3.24
3.31
3.24
3.37
3.2
3.33
3.33
3.2
3.26
3.18
3.23
3.25
3.21
3.54
3.55
3.47
3.52
3.3
3.18
3.06
3.07
3.14
2.77
2.85
4.58
5.0
5.0
3.35
2.32
2.42
2.86
2.94
2.81
2.88
2.87
2.85
2.88
2.85
2.92
2.97
2.91
3.1
2.91
2.87
2.93
2.9
2.99
3.0
3.02
3.21
3.18
3.29
3.31
3.32
3.37
3.3
3.34
3.3
3.24
3.35
3.23
3.29
3.32
3.21
3.32
3.24
3.3
3.23
3.14
3.29
3.23
3.28
3.3
3.23
3.33
3.3
3.53
3.7
3.46
3.56
3.42
3.16
3.24
3.12
3.14
2.81
2.76
4.79
5.0
5.0
3.5
2.12
2.5
2.86
2.8
2.93
2.79
2.93
2.88
2.79
2.93
2.8
2.91
2.91
2.8
2.97
2.76
2.84
2.92
2.81
3.02
3.05
3.17
3.3
3.25
3.46
3.35
3.38
3.43
3.29
3.44
3.3
3.3
3.44
3.31
3.44
3.46
3.32
3.44
3.26
3.37
3.33
3.24
3.37
3.2
3.32
3.4
3.41
3.67
3.48
3.55
3.39
3.16
3.13
3.11
3.13
2.87
2.59
3.98
5.0
5.0
4.23
2.22
2.32
2.81
2.76
2.83
2.78
2.89
2.89
2.93
3.02
2.96
3.0
3.0
2.9
2.89
2.82
2.83
2.85
2.77
2.92
2.9
3.06
3.21
3.21
3.31
3.25
3.32
3.4
3.25
3.35
3.32
3.25
3.33
3.23
3.35
3.38
3.29
3.36
3.24
3.3
3.35
3.39
3.52
3.45
3.64
3.89
3.68
3.81
3.63
3.37
3.34
3.14
3.21
3.04
2.61
3.2
5.0
5.0
5.0
2.77
2.18
2.59
2.88
2.86
2.84
3.03
2.98
2.96
3.02
2.91
3.07
2.97
2.99
3.07
2.91
2.99
2.93
2.91
3.05
2.98
3.18
3.22
3.25
3.39
3.3
3.33
3.35
3.32
3.4
3.31
3.33
3.36
3.29
3.37
3.35
3.38
3.38
3.21
3.33
3.32
3.3
3.44
3.47
3.65
3.66
3.65
3.54
3.28
3.35
3.21
3.15
2.99
2.79
4.28
5.0
5.0
3.88
2.63
2.47
3.1
3.03
3.15
3.15
3.17
3.25
3.15
3.34
3.27
3.3
3.32
3.2
3.25
3.19
3.15
3.25
3.18
3.35
3.42
3.43
3.55
3.46
3.51
3.52
3.4
3.49
3.35
3.38
3.45
3.33
3.52
3.45
3.35
3.52
3.37
3.45
3.49
3.53
3.73
3.62
3.68
3.54
3.24
3.21
3.13
3.14
2.98
2.73
3.55
5.0
5.0
3.74
2.91
2.34
2.44
2.84
2.85
2.76
2.94
2.91
2.91
3.01
3.0
3.03
3.03
2.92
3.02
2.88
2.92
2.92
2.79
3.02
2.94
3.01
3.16
3.04
3.18
3.16
3.15
3.23
3.07
3.18
3.17
3.06
3.15
3.05
3.15
3.12
3.05
3.18
3.07
3.19
3.35
3.37
3.49
3.29
3.11
3.07
2.87
2.94
2.84
2.48
2.53
4.41
5.0
5.0
3.13
1.95
2.13
2.67
2.6
2.58
2.73
2.66
2.69
2.74
2.64
2.82
2.71
2.83
2.83
2.73
2.79
2.73
2.83
2.91
2.89
3.03
3.01
3.11
3.21
3.11
3.21
3.17
3.18
3.3
3.07
3.2
3.13
3.14
3.23
3.09
3.14
3.16
3.1
3.26
3.18
3.33
3.42
3.44
3.52
3.2
3.05
3.07
2.93
3.02
2.67
2.44
4.17
5.0
5.0
4.36
1.84
2.23
2.62
2.67
2.65
2.67
2.77
2.68
2.73
2.83
2.74
2.86
2.75
2.74
2.74
2.67
2.76
2.81
2.82
2.97
2.96
3.18
3.18
3.17
3.32
3.24
3.33
3.3
3.26
3.3
3.13
3.26
3.23
3.15
3.27
3.18
3.25
3.31
3.07
3.25
3.15
3.13
3.15
3.06
3.17
3.14
3.09
3.2
3.25
3.52
3.35
3.35
3.36
3.07
3.13
3.11
3.02
2.92
2.6
4.1
5.0
5.0
4.32
2.09
2.3
2.83
2.74
2.82
2.8
2.82
2.88
2.79
2.93
2.93
2.86
2.97
2.83
2.89
2.84
2.79
2.99
2.85
3.0
3.09
3.14
3.17
3.16
3.15
3.26
3.15
3.27
3.19
3.14
3.26
3.09
3.17
3.14
3.13
3.18
3.13
3.17
3.23
3.11
3.3
3.12
3.19
3.19
3.15
3.25
3.16
3.18
3.23
3.19
3.3
3.19
3.21
3.3
3.15
3.34
3.54
3.52
3.51
3.44
3.39
3.17
3.18
3.25
3.0
2.74
3.33
5.0
5.0
5.0
2.81
2.26
2.77
2.96
2.8
2.86
2.98
2.9
2.97
2.97
2.93
3.08
3.0
3.11
3.03
2.97
3.14
3.03
3.12
3.17
3.19
3.25
3.25
3.34
3.39
3.33
3.52
3.45
3.47
3.49
3.37
3.52
3.35
3.39
3.48
3.34
3.48
3.39
3.44
3.57
3.33
3.43
3.46
3.35
3.44
3.36
3.44
3.37
3.34
3.45
3.35
3.33
3.46
3.37
3.47
3.37
3.38
3.49
3.4
3.55
3.43
3.38
3.5
3.33
3.4
3.53
3.56
3.64
3.48
3.44
3.35
3.17
3.29
3.2
2.97
3.02
4.33
5.0
5.0
3.51
2.58
2.38
3.05
2.93
2.92
3.04
2.96
3.0
3.0
3.04
3.11
3.04
3.0
3.11
3.06
3.09
3.1
3.06
3.15
3.14
3.3
3.24
3.24
3.32
3.26
3.38
3.39
3.34
3.26
3.24
3.34
3.29
3.25
3.37
3.24
3.34
3.38
3.19
3.47
3.35
3.37
3.44
3.25
3.46
3.37
3.32
3.42
3.26
3.33
3.25
3.26
3.33
3.14
3.24
3.2
3.24
3.32
3.37
3.54
3.64
3.62
3.62
3.29
3.32
3.32
3.31
3.25
3.0
3.68
5.0
5.0
3.94
2.89
2.43
2.82
2.94
3.0
2.94
2.93
3.13
2.99
3.1
3.05
3.02
3.11
3.07
3.08
3.15
2.94
3.11
3.0
3.12
3.05
2.97
3.07
3.01
3.09
3.06
3.05
3.17
3.07
3.12
3.24
3.05
3.1
3.18
3.2
3.48
2.98
3.18
3.19
3.13
3.31
3.18
3.19
3.2
3.13
3.25
3.26
3.1
3.19
3.15
3.34
3.25
3.24
3.44
3.47
3.59
3.46
3.21
3.15
3.0
3.11
2.91
2.67
3.14
5.0
5.0
3.96
2.78
2.29
2.48
2.83
2.71
2.58
2.67
2.58
2.74
2.79
2.71
2.86
2.78
2.88
2.94
2.81
2.87
2.95
2.86
3.04
2.91
2.99
3.04
2.97
3.1
2.97
3.09
3.03
3.06
3.13
2.94
3.11
3.19
3.05
3.21
3.12
3.13
3.21
3.11
3.34
3.29
3.11
3.27
3.11
3.2
3.11
3.04
3.15
3.04
3.12
3.11
3.06
3.19
3.14
3.18
3.12
3.06
3.24
3.16
3.24
3.32
3.42
3.49
3.23
3.11
3.06
2.9
3.0
2.82
2.54
3.12
5.0
5.0
4.14
2.43
2.15
2.43
2.71
2.69
2.62
2.74
2.74
2.73
2.87
2.74
2.92
2.78
2.85
2.94
2.78
2.93
2.93
2.91
3.06
2.97
3.1
3.14
3.03
3.26
3.16
3.18
3.25
3.15
3.3
3.18
3.12
3.19
3.12
3.29
3.15
3.25
3.33
3.13
3.31
3.19
3.15
3.24
3.07
3.19
3.13
3.11
3.14
3.02
3.15
3.07
3.02
3.13
2.97
3.07
3.19
3.0
3.14
3.01
3.12
3.19
3.2
3.37
3.32
3.13
3.11
2.88
2.99
2.9
2.71
2.53
3.33
5.0
5.0
4.41
2.1
2.02
2.64
2.62
2.6
2.74
2.68
2.73
2.79
2.72
2.85
2.78
2.91
2.89
2.78
2.94
2.86
2.84
3.0
2.93
3.09
3.09
3.06
3.24
3.08
3.17
3.17
3.06
3.24
3.07
3.11
3.17
3.02
3.18
3.03
3.17
3.17
3.11
3.2
3.13
3.12
3.24
3.13
3.19
3.13
3.11
3.23
3.1
3.14
3.14
3.11
3.19
3.13
3.2
3.26
3.11
3.28
3.18
3.18
3.24
3.07
3.28
3.17
3.21
3.31
3.3
3.57
3.5
3.47
3.38
3.17
3.19
3.09
3.1
2.88
2.7
4.63
5.0
5.0
4.45
2.05
2.48
2.97
2.77
2.95
2.88
2.88
2.99
2.93
3.12
3.01
3.0
3.1
2.99
3.07
3.05
2.93
3.07
2.97
3.13
3.21
3.11
3.26
3.18
3.26
3.28
3.19
3.35
3.19
3.3
3.28
3.14
3.32
3.29
3.19
3.29
3.18
3.3
3.29
3.26
3.37
3.27
3.32
3.3
3.23
3.36
3.22
3.21
3.24
3.12
3.26
3.07
3.19
3.24
3.13
3.23
3.18
3.18
3.26
3.11
3.28
3.19
3.16
3.33
3.52
3.5
3.4
3.23
3.21
3.11
3.14
3.06
2.62
3.05
5.0
5.0
5.0
2.78
2.27
2.54
2.8
2.76
2.77
2.88
2.81
2.83
3.02
2.88
2.96
2.97
2.91
2.97
2.89
2.95
3.03
2.99
3.13
3.12
3.27
3.24
3.25
3.37
3.29
3.31
3.37
3.28
3.35
3.27
3.25
3.33
3.17
3.32
3.24
3.19
3.38
3.16
3.27
3.3
3.21
3.25
3.15
3.16
3.19
3.12
3.2
3.13
3.16
3.19
3.09
3.33
3.29
3.37
3.54
3.37
3.49
3.17
3.1
3.12
2.97
3.01
2.73
2.78
4.41
5.0
4.81
2.92
2.34
2.33
2.68
2.83
2.82
2.73
2.97
2.79
2.84
2.97
2.8
2.99
2.92
2.89
2.99
2.92
3.0
2.96
2.88
3.09
2.94
3.0
3.06
3.04
3.12
3.07
3.12
3.15
3.07
3.15
3.07
3.04
3.14
3.07
3.15
3.09
3.09
3.16
3.11
3.19
3.12
3.12
3.23
3.12
3.12
3.06
3.02
3.18
3.03
3.12
3.13
3.05
3.22
3.13
3.25
3.34
3.32
3.56
3.46
3.25
3.16
2.97
3.06
3.04
2.77
2.56
3.31
5.0
5.0
4.34
2.33
1.96
2.55
2.61
2.53
2.73
2.53
2.66
2.71
2.66
2.78
2.71
2.83
2.86
2.74
2.96
2.84
2.84
2.92
2.85
2.98
2.96
2.97
3.11
3.05
3.3
3.25
3.15
3.3
3.19
3.22
3.24
3.12
3.22
3.14
3.03
3.31
3.12
3.35
3.08
3.14
3.21
3.1
3.19
3.13
3.01
3.15
3.13
3.28
3.19
3.25
3.33
3.27
3.5
3.64
3.48
3.47
3.2
3.17
3.27
2.98
3.05
2.6
3.11
5.0
5.0
5.0
2.89
1.97
2.72
2.69
2.73
2.81
2.71
2.93
2.71
2.83
2.89
2.8
2.96
2.83
2.91
2.85
2.72
2.93
2.86
2.91
3.0
2.97
3.11
3.07
3.13
3.23
3.17
3.19
3.19
3.15
3.25
3.14
3.24
3.21
3.11
3.29
3.21
3.24
3.24
3.21
3.28
3.15
3.13
3.18
3.04
3.15
3.1
3.07
3.19
3.16
3.15
3.19
3.2
3.43
3.48
3.54
3.46
3.18
3.18
3.07
3.13
3.11
2.63
2.84
4.91
5.0
5.0
3.44
2.15
2.58
2.85
2.88
2.79
2.93
2.91
2.89
3.02
2.93
3.03
3.05
3.01
3.11
3.06
3.03
3.13
3.06
3.28
3.18
3.27
3.36
3.29
3.48
3.44
3.44
3.56
3.48
3.55
3.52
3.43
3.54
3.43
3.53
3.54
3.44
3.59
3.44
3.5
3.48
3.37
3.5
3.34
3.37
3.4
3.3
3.47
3.38
3.54
3.73
3.57
3.71
3.46
3.23
3.32
3.17
3.29
3.07
2.79
3.68
5.0
5.0
3.82
2.76
2.38
2.71
2.91
2.93
2.92
3.05
2.96
3.02
3.15
3.02
3.17
3.09
3.12
3.18
3.02
3.14
3.13
3.11
3.29
3.12
3.24
3.23
3.18
3.34
3.25
3.3
3.26
3.23
3.26
3.24
3.27
3.33
3.22
3.38
3.31
3.29
3.38
3.31
3.37
3.29
3.25
3.36
3.17
3.3
3.36
3.39
3.6
3.47
3.53
3.28
3.07
3.16
3.06
3.12
2.92
2.78
4.1
5.0
5.0
3.09
2.56
2.25
2.71
2.77
2.95
2.8
2.93
2.99
2.93
3.06
2.91
3.03
3.03
2.93
3.07
2.97
2.95
3.05
2.92
3.1
2.97
3.05
3.05
3.06
3.2
3.18
3.18
3.28
3.07
3.2
3.13
3.09
3.12
3.1
3.21
3.2
3.03
3.15
3.06
3.07
3.13
2.98
3.07
3.02
3.09
3.12
3.14
3.43
3.29
3.26
3.15
2.88
2.94
2.94
2.83
2.74
2.49
3.35
5.0
5.0
3.3
2.44
1.94
2.46
2.59
2.62
2.51
2.64
2.64
2.6
2.75
2.64
2.7
2.78
2.72
2.8
2.78
2.77
2.86
2.74
2.86
2.93
2.88
3.04
3.0
3.02
3.05
2.96
3.11
3.04
3.02
3.08
2.94
3.03
2.98
3.0
3.03
2.92
3.06
3.0
2.93
3.06
2.95
3.0
2.99
2.9
3.1
2.98
3.13
3.29
3.12
3.26
2.97
2.9
2.89
2.76
2.92
2.62
2.48
3.64
5.0
5.0
3.43
2.15
2.09
2.48
2.58
2.58
2.52
2.68
2.61
2.71
2.79
2.74
2.86
2.79
2.79
2.87
2.74
2.88
2.81
2.8
2.99
2.92
3.09
3.13
3.15
3.28
3.12
3.19
3.19
3.13
3.26
3.15
3.15
3.22
3.09
3.23
3.18
3.18
3.28
3.19
3.3
3.13
3.18
3.15
3.07
3.16
3.12
3.13
3.32
3.31
3.51
3.42
3.21
3.18
2.99
3.02
3.0
2.88
2.71
3.02
5.0
5.0
4.9
2.7
1.99
2.49
2.73
2.55
2.71
2.71
2.68
2.79
2.67
2.77
2.81
2.81
2.92
2.72
2.79
2.88
2.79
2.95
2.88
2.96
3.07
3.06
3.18
3.16
3.18
3.24
3.16
3.19
3.21
3.12
3.21
3.12
3.21
3.17
3.13
3.26
3.12
3.23
3.21
3.11
3.2
3.09
3.09
3.22
3.05
3.19
3.11
3.11
3.21
3.24
3.49
3.35
3.33
3.31
3.01
3.11
3.11
3.05
2.98
2.59
3.89
5.0
5.0
4.23
2.3
2.32
2.82
2.79
2.85
2.88
2.88
2.91
2.85
3.03
2.98
2.96
3.01
2.88
3.02
2.95
2.89
3.03
2.91
3.05
3.06
3.11
3.25
3.15
3.23
3.27
3.15
3.32
3.18
3.12
3.19
3.11
3.19
3.15
3.13
3.23
3.12
3.19
3.24
3.17
3.2
3.16
3.23
3.24
3.13
3.31
3.18
3.21
3.29
3.32
3.57
3.42
3.35
3.41
3.15
3.15
3.05
3.07
3.07
2.63
2.93
5.0
5.0
5.0
2.7
2.15
2.43
2.64
2.73
2.66
2.7
2.82
2.79
2.83
2.76
2.78
2.84
2.73
2.84
2.77
2.72
2.94
2.82
2.93
2.91
2.95
3.12
2.99
3.1
3.15
3.01
3.24
3.04
3.17
3.11
3.03
3.19
3.07
3.09
3.12
3.0
3.21
3.16
3.15
3.2
3.0
3.07
3.03
2.97
3.09
2.93
3.0
3.04
2.94
3.19
3.25
3.12
3.2
2.97
2.92
2.74
2.77
2.86
2.59
2.49
3.11
5.0
5.0
3.53
2.53
1.95
2.37
2.7
2.42
2.56
2.6
2.57
2.63
2.55
2.65
2.67
2.57
2.72
2.59
2.65
2.64
2.71
2.74
2.71
2.79
2.78
2.71
2.86
2.88
2.84
2.92
2.79
2.88
2.82
2.79
2.92
2.8
2.89
2.84
2.83
2.99
2.9
2.94
2.94
2.9
3.06
2.92
2.94
2.96
2.92
3.0
2.93
2.95
2.97
2.9
3.03
3.09
3.18
3.23
3.06
3.06
2.95
2.82
2.94
2.84
2.64
2.49
3.42
5.0
5.0
3.25
2.38
1.94
2.6
2.57
2.53
2.65
2.54
2.65
2.63
2.6
2.67
2.62
2.77
2.71
2.62
2.72
2.61
2.66
2.71
2.67
2.82
2.77
2.76
2.91
2.96
2.91
2.89
2.92
2.97
2.89
2.97
2.96
2.97
3.11
2.97
3.12
3.12
3.0
3.11
3.03
3.07
3.07
2.95
3.13
2.96
2.98
3.05
2.94
3.05
2.95
2.93
3.04
2.91
3.05
2.97
3.09
3.37
3.11
3.18
3.09
2.87
2.94
2.79
2.87
2.68
2.35
3.53
5.0
5.0
3.37
1.97
1.95
2.37
2.41
2.45
2.38
2.54
2.52
2.32
2.53
2.35
2.47
2.41
2.34
2.39
2.27
2.32
2.36
2.29
2.51
2.45
2.43
2.62
2.47
2.66
2.65
2.65
2.76
2.62
2.7
2.65
2.62
2.7
2.56
2.67
2.66
2.61
2.71
2.57
2.59
2.56
2.45
2.59
2.48
2.47
2.5
2.37
2.47
2.46
2.37
2.47
2.33
2.53
2.7
2.69
2.71
2.6
2.61
2.45
2.45
2.46
2.28
2.0
1.98
3.97
5.0
4.83
2.13
1.51
1.56
2.13
1.85
1.9
1.91
1.8
1.91
1.85
1.87
2.03
1.89
2.01
1.88
1.86
1.99
1.83
1.92
1.93
1.92
2.12
2.03
2.22
2.24
2.17
2.34
2.23
2.27
2.28
2.18
2.31
2.19
2.23
2.26
2.18
2.29
2.24
2.19
2.3
2.15
2.25
2.23
2.19
2.18
2.13
2.21
2.14
2.09
2.23
2.09
2.15
2.27
2.37
2.48
2.43
2.36
2.33
2.13
2.19
2.14
2.03
1.8
1.7
3.82
5.0
4.46
1.99
1.26
1.54
1.85
1.72
1.8
1.74
1.8
1.88
1.75
1.92
1.9
1.89
2.07
1.85
1.98
1.97
1.9
2.09
2.02
2.15
2.29
2.22
2.44
2.36
2.36
2.5
2.36
2.53
2.36
2.46
2.5
2.42
2.54
2.53
2.48
2.66
2.49
2.65
2.6
2.53
2.71
2.55
2.65
2.66
2.64
2.84
2.73
2.79
2.92
3.01
3.21
3.12
3.14
3.07
2.89
2.91
2.9
2.83
2.7
2.51
4.08
5.0
4.86
2.91
2.2
2.04
2.61
2.55
2.7
2.58
2.57
2.68
2.55
2.7
2.65
2.67
2.74
2.7
2.79
2.73
2.78
2.87
2.82
2.95
2.96
2.92
3.08
2.96
3.12
3.13
3.08
3.15
3.12
3.11
3.2
3.11
3.14
3.11
3.18
3.21
3.05
3.23
3.19
3.17
3.19
3.1
3.23
3.12
3.23
3.49
3.4
3.47
3.37
3.23
3.27
3.1
3.13
3.09
2.73
3.33
4.89
5.0
3.71
2.91
2.38
2.31
2.81
2.84
2.75
2.82
2.86
2.89
2.88
2.84
2.91
2.92
2.84
3.0
2.88
3.03
3.04
2.92
3.01
3.01
3.02
3.1
2.98
3.17
3.09
3.09
3.17
3.03
3.09
3.11
3.0
3.13
3.0
3.15
3.12
3.06
3.15
3.09
3.07
3.07
3.02
3.13
3.01
3.05
3.21
3.2
3.35
3.25
3.11
3.04
2.79
2.89
2.79
2.67
2.49
2.56
4.59
5.0
4.22
2.74
2.06
2.22
2.71
2.6
2.71
2.62
2.64
2.76
2.67
2.85
2.8
2.82
2.94
2.76
2.9
2.84
2.8
2.94
2.89
2.97
2.97
2.94
3.05
2.95
2.97
3.04
2.92
3.11
3.02
2.88
2.98
2.82
2.86
2.84
2.86
2.96
2.92
3.0
3.01
2.91
3.0
2.92
2.98
3.07
3.09
3.34
3.19
3.21
3.07
2.81
2.96
2.91
2.84
2.62
2.38
4.46
5.0
5.0
3.4
1.77
2.18
2.61
2.42
2.65
2.54
2.6
2.65
2.6
2.71
2.65
2.71
2.84
2.64
2.8
2.73
2.71
2.8
2.71
2.83
2.83
2.78
2.96
2.87
2.95
2.96
2.93
3.0
2.96
3.02
2.97
2.91
3.06
3.0
3.04
3.1
3.12
3.12
3.13
3.06
3.2
3.02
3.21
3.21
3.29
3.56
3.38
3.44
3.27
3.06
3.11
2.99
3.05
2.7
2.5
4.19
5.0
5.0
3.41
2.09
2.27
2.63
2.65
2.69
2.64
2.71
2.67
2.65
2.79
2.67
2.78
2.71
2.67
2.79
2.67
2.72
2.78
2.71
2.9
2.84
3.0
3.07
3.0
3.19
3.12
3.11
3.15
3.05
3.13
3.08
3.1
3.18
3.07
3.19
3.12
3.07
3.18
3.05
3.14
3.21
3.16
3.52
3.3
3.37
3.15
2.92
2.99
2.88
2.88
2.61
2.27
4.18
5.0
5.0
4.29
1.74
2.18
2.58
2.44
2.56
2.48
2.55
2.56
2.57
2.67
2.64
2.7
2.72
2.65
2.72
2.66
2.67
2.77
2.77
2.78
2.89
2.93
3.13
3.07
3.13
3.11
3.06
3.16
3.13
3.19
3.19
3.06
3.12
3.04
3.09
3.13
2.98
3.15
3.11
3.14
3.28
3.3
3.53
3.32
3.29
3.15
2.93
3.02
2.96
2.73
2.47
2.96
5.0
5.0
5.0
2.77
1.88
2.5
2.66
2.42
2.65
2.66
2.6
2.72
2.64
2.72
2.7
2.75
2.84
2.67
2.71
2.7
2.7
2.73
2.7
2.9
2.93
2.9
3.09
3.0
3.04
3.19
3.07
3.2
3.06
3.11
3.24
3.09
3.2
3.13
3.11
3.16
3.09
3.12
3.12
3.12
3.16
3.11
3.31
3.42
3.36
3.56
3.28
3.19
3.13
3.05
3.19
2.91
2.58
3.3
5.0
5.0
5.0
2.71
2.1
2.6
2.83
2.65
2.71
2.83
2.67
2.82
2.86
2.78
2.87
2.72
2.77
2.82
2.62
2.81
2.74
2.74
2.94
2.86
3.1
3.13
3.12
3.25
3.11
3.2
3.28
3.15
3.2
3.09
3.18
3.16
3.07
3.21
3.15
3.18
3.27
3.12
3.31
3.11
3.17
3.19
3.06
3.19
3.29
3.38
3.44
3.35
3.29
3.24
3.03
3.09
3.03
2.89
2.72
3.56
5.0
5.0
3.99
2.62
2.15
2.81
2.83
2.74
2.91
2.74
2.91
2.86
2.84
2.96
2.94
2.96
2.89
2.8
2.91
2.82
2.88
2.92
2.87
3.07
3.02
3.15
3.19
3.07
3.24
3.15
3.15
3.19
3.14
3.24
3.18
3.19
3.32
3.09
3.17
3.18
3.13
3.21
3.07
3.12
3.27
3.05
3.21
3.09
3.13
3.16
3.25
3.43
3.2
3.21
3.18
2.92
3.11
3.06
2.95
2.7
2.7
4.65
5.0
4.88
2.97
2.15
2.32
2.83
2.64
2.78
2.76
2.76
2.79
2.74
2.87
2.71
2.79
2.81
2.77
2.76
2.73
2.73
2.82
2.75
2.93
2.88
2.94
3.15
3.02
3.13
3.19
3.02
3.18
3.08
3.12
3.18
2.98
3.19
3.17
3.14
3.21
3.14
3.19
3.18
3.15
3.24
3.09
3.18
3.18
3.03
3.21
3.09
3.12
3.37
3.33
3.38
3.27
3.31
3.17
3.02
3.11
3.09
2.72
2.7
4.41
5.0
5.0
3.13
2.26
2.26
2.85
2.81
2.67
2.78
2.69
2.73
2.74
2.67
2.78
2.72
2.78
2.83
2.73
2.71
2.71
2.77
2.85
2.78
2.93
2.98
2.96
3.15
2.97
3.11
3.12
2.99
3.13
3.0
3.06
3.09
2.97
3.09
3.0
3.09
3.11
2.97
3.13
3.07
3.02
3.06
2.89
3.02
2.92
2.94
3.03
2.92
3.0
3.03
3.13
3.38
3.25
3.27
3.17
3.07
3.12
2.98
3.06
2.85
2.65
4.28
5.0
4.96
2.97
2.3
2.26
2.72
2.66
2.75
2.68
2.77
2.79
2.77
2.87
2.78
2.78
2.79
2.73
2.91
2.77
2.81
2.87
2.8
2.93
2.86
2.86
3.01
2.91
3.06
3.02
2.94
3.03
2.9
3.01
2.94
2.92
3.06
2.98
3.04
3.13
3.01
3.07
2.94
3.0
3.06
2.93
2.97
2.9
2.86
2.93
2.88
3.11
3.15
3.09
3.15
2.94
2.94
2.77
2.68
2.84
2.58
2.54
3.25
5.0
5.0
2.88
2.5
1.9
2.27
2.67
2.52
2.56
2.62
2.56
2.66
2.6
2.6
2.7
2.57
2.71
2.67
2.61
2.74
2.59
2.66
2.7
2.62
2.78
2.72
2.77
2.96
2.84
2.98
2.94
2.93
2.94
2.82
2.97
2.89
2.88
2.99
2.92
2.97
2.99
2.84
3.03
2.86
2.92
2.93
2.85
2.97
2.84
2.92
2.92
2.78
2.89
2.88
3.13
3.19
2.97
3.12
2.89
2.84
2.83
2.77
2.77
2.44
2.65
5.0
5.0
5.0
2.47
1.79
2.39
2.5
2.39
2.55
2.47
2.55
2.48
2.53
2.62
2.55
2.63
2.62
2.51
2.6
2.47
2.6
2.62
2.63
2.82
2.7
2.87
2.92
2.83
3.04
2.96
2.94
3.01
2.92
3.03
2.89
2.96
3.11
2.9
3.07
2.97
3.01
3.12
2.97
3.09
3.01
3.05
3.12
2.91
3.07
3.04
2.93
3.08
3.06
3.09
3.16
3.25
3.54
3.24
3.33
3.21
3.02
3.07
2.96
2.99
2.71
2.55
4.7
5.0
5.0
3.26
1.85
2.37
2.68
2.53
2.71
2.62
2.71
2.78
2.64
2.73
2.71
2.83
2.81
2.73
2.86
2.74
2.83
2.95
2.88
2.95
3.03
3.05
3.14
3.07
3.24
3.24
3.12
3.34
3.23
3.22
3.33
3.15
3.25
3.13
3.2
3.21
3.09
3.21
3.18
3.13
3.25
3.1
3.21
3.18
3.15
3.23
3.13
3.16
3.2
3.06
3.19
3.07
3.33
3.46
3.34
3.42
3.25
3.18
3.14
3.05
3.17
2.88
2.7
4.02
5.0
5.0
4.19
2.3
2.37
2.74
2.84
2.81
2.82
2.93
2.77
3.0
3.0
2.89
3.05
2.96
2.97
3.02
2.92
3.03
3.01
3.05
3.18
3.1
3.29
3.3
3.26
3.37
3.29
3.44
3.4
3.31
3.42
3.34
3.34
3.35
3.24
3.43
3.29
3.32
3.4
3.29
3.4
3.3
3.24
3.36
3.2
3.35
3.24
3.26
3.32
3.24
3.38
3.52
3.54
3.59
3.42
3.34
3.38
3.12
3.26
3.13
2.95
2.92
4.25
5.0
5.0
3.08
2.58
2.22
2.83
2.83
2.78
2.91
2.78
2.84
2.88
2.86
2.96
2.86
2.99
2.96
2.91
3.0
2.91
2.94
2.97
2.93
3.09
3.04
3.1
3.2
3.12
3.23
3.15
3.23
3.24
3.09
3.23
3.19
3.11
3.25
3.11
3.21
3.16
3.13
3.2
3.04
3.06
3.07
2.95
3.04
2.95
3.05
3.07
2.95
3.06
3.17
3.28
3.31
3.11
3.1
3.06
2.89
3.05
2.91
2.81
2.62
3.2
5.0
5.0
3.55
2.64
2.08
2.64
2.71
2.62
2.77
2.6
2.77
2.68
2.7
2.84
2.71
2.86
2.74
2.65
2.79
2.65
2.72
2.71
2.67
2.85
2.84
2.93
2.96
2.97
3.15
3.03
3.05
3.07
2.96
3.09
2.95
2.98
3.09
3.0
3.13
2.99
3.09
3.14
2.96
3.1
3.07
2.93
3.1
2.96
3.01
3.02
3.02
3.1
3.13
3.32
3.36
3.21
3.28
3.07
2.97
2.99
2.94
2.92
2.6
2.78
5.0
5.0
5.0
2.72
2.03
2.57
2.73
2.77
2.79
2.71
2.84
2.78
2.82
2.88
2.77
2.86
2.85
2.82
2.89
2.75
2.8
2.79
2.73
2.93
2.88
3.03
3.05
3.02
3.21
3.11
3.17
3.23
3.15
3.17
3.13
3.13
3.17
3.07
3.22
3.15
3.13
3.25
3.14
3.19
3.21
3.14
3.23
3.05
3.11
3.14
3.04
3.19
3.18
3.49
3.4
3.23
3.42
3.15
3.13
3.2
3.07
3.05
2.71
3.36
5.0
5.0
5.0
2.7
2.16
2.8
2.84
2.81
2.92
2.85
2.93
2.93
2.95
2.94
2.88
3.07
3.01
2.99
2.91
2.85
2.98
2.92
2.92
3.12
3.02
3.2
3.19
3.16
3.27
3.21
3.27
3.29
3.17
3.27
3.21
3.2
3.25
3.16
3.24
3.14
3.17
3.19
3.16
3.21
3.2
3.21
3.26
3.09
3.19
3.15
3.11
3.24
3.21
3.48
3.5
3.37
3.44
3.19
3.15
3.17
3.06
3.01
2.52
3.05
5.0
5.0
4.99
2.58
1.97
2.61
2.65
2.66
2.67
2.6
2.71
2.63
2.71
2.77
2.67
2.78
2.65
2.69
2.73
2.58
2.73
2.59
2.7
2.83
2.82
2.94
2.97
2.99
3.14
3.06
3.13
3.15
3.07
3.18
3.02
3.15
3.11
3.07
3.21
3.12
3.2
3.19
3.13
3.25
3.18
3.18
3.19
3.11
3.16
3.07
3.1
3.2
3.17
3.52
3.37
3.29
3.34
3.14
3.13
3.04
2.97
3.06
2.66
3.25
5.0
5.0
4.12
2.76
2.19
2.62
2.81
2.84
2.79
2.85
2.91
2.88
2.95
2.93
2.97
3.06
2.97
3.03
3.06
3.0
3.09
3.0
3.09
3.14
3.11
3.21
3.12
3.14
3.25
3.21
3.27
3.2
3.2
3.25
3.15
3.25
3.21
3.21
3.34
3.22
3.26
3.32
3.18
3.3
3.13
3.17
3.19
3.13
3.24
3.34
3.47
3.52
3.38
3.43
3.25
3.11
3.18
3.11
3.08
2.87
3.29
5.0
5.0
3.71
3.06
2.19
2.54
2.79
2.82
2.83
2.71
2.86
2.78
2.86
2.87
2.8
3.04
2.9
2.9
3.0
2.88
2.92
2.92
2.92
3.0
2.95
3.04
3.11
3.0
3.18
3.07
3.15
3.17
3.09
3.14
3.11
3.15
3.17
3.11
3.24
3.15
3.14
3.23
3.05
3.12
3.06
3.0
3.07
3.05
3.05
3.04
3.18
3.42
3.26
3.21
3.21
3.0
3.03
2.95
2.97
2.92
2.56
3.17
5.0
5.0
3.81
2.52
2.04
2.3
2.68
2.63
2.66
2.71
2.66
2.61
2.77
2.65
2.71
2.77
2.66
2.76
2.7
2.64
2.73
2.6
2.76
2.71
2.77
2.94
2.81
2.96
2.92
2.9
3.02
2.96
2.98
2.98
2.93
3.03
2.95
3.02
3.01
2.96
3.07
3.0
2.96
3.05
2.9
3.0
2.89
2.9
2.98
2.84
3.15
3.22
3.18
3.24
3.06
3.05
2.88
2.79
2.97
2.72
2.49
2.69
4.94
5.0
5.0
2.62
1.93
2.27
2.64
2.5
2.56
2.65
2.56
2.68
2.69
2.66
2.82
2.69
2.79
2.73
2.69
2.79
2.73
2.86
2.87
2.91
3.08
2.98
3.11
3.17
3.09
3.18
3.1
3.13
3.24
3.07
3.2
3.11
3.07
3.19
3.06
3.15
3.12
3.12
3.23
3.09
3.12
3.18
3.06
3.17
3.11
3.1
3.15
3.05
3.19
3.28
3.45
3.58
3.37
3.53
3.34
3.2
3.26
3.12
3.24
2.91
2.74
4.77
5.0
5.0
4.14
2.03
2.58
2.86
2.82
2.93
2.92
2.91
2.97
2.87
3.01
2.93
3.0
2.98
2.86
2.96
2.79
2.9
2.91
2.84
3.03
3.01
3.11
3.13
3.11
3.24
3.13
3.26
3.31
3.2
3.33
3.25
3.18
3.21
3.09
3.18
3.13
3.12
3.21
3.03
3.24
3.13
3.04
3.21
3.13
3.19
3.18
3.07
3.21
3.15
3.13
3.23
3.16
3.45
3.38
3.38
3.36
3.19
3.23
3.1
3.1
3.11
2.92
2.73
3.49
5.0
5.0
4.99
2.44
2.15
2.65
2.9
2.78
2.8
2.91
2.78
2.92
2.81
2.82
2.91
2.8
2.94
2.83
2.75
2.88
2.76
2.91
2.9
2.92
3.09
3.02
3.13
3.2
3.09
3.25
3.19
3.24
3.26
3.09
3.29
3.14
3.16
3.22
3.11
3.25
3.19
3.18
3.29
3.11
3.24
3.17
3.09
3.23
3.12
3.19
3.23
3.14
3.25
3.18
3.22
3.33
3.4
3.64
3.4
3.43
3.36
3.11
3.19
3.13
3.02
2.82
2.96
5.0
5.0
4.75
3.01
2.2
2.52
2.83
2.71
2.94
2.82
2.92
2.94
2.88
3.11
3.0
3.01
3.12
2.92
3.06
2.99
2.96
3.12
2.98
3.13
3.17
3.13
3.29
3.15
3.31
3.31
3.26
3.27
3.23
3.21
3.23
3.12
3.24
3.13
3.15
3.17
3.05
3.19
3.03
3.04
3.12
3.06
3.11
3.07
3.0
3.14
2.99
3.09
3.19
3.35
3.51
3.33
3.3
3.2
3.02
3.15
3.04
3.11
2.89
2.96
5.0
5.0
4.71
3.02
2.19
2.48
2.77
2.71
2.83
2.71
2.81
2.78
2.73
2.86
2.74
2.84
2.83
2.69
2.93
2.74
2.7
2.81
2.71
2.94
2.88
2.93
3.13
2.93
3.11
3.12
3.05
3.17
3.05
3.13
3.1
3.02
3.15
3.05
3.11
3.14
3.13
3.14
3.03
3.08
3.11
3.0
3.07
3.02
3.0
3.09
2.99
3.06
3.01
3.09
3.4
3.25
3.3
3.21
3.02
3.05
2.91
3.01
2.94
2.54
2.79
4.61
5.0
5.0
3.02
2.1
2.27
2.65
2.67
2.55
2.71
2.66
2.64
2.74
2.65
2.72
2.74
2.68
2.73
2.61
2.67
2.76
2.71
2.8
2.79
2.89
2.96
2.9
3.06
3.05
3.07
3.15
3.02
3.2
3.1
3.02
3.19
3.02
3.07
3.11
2.97
3.17
2.99
3.02
3.09
2.96
3.15
3.0
3.15
3.19
3.07
3.21
3.12
3.14
3.29
3.3
3.54
3.47
3.36
3.37
3.15
3.14
3.16
3.07
3.05
2.58
3.28
5.0
5.0
5.0
2.61
2.14
2.73
2.72
2.86
2.74
2.74
2.84
2.7
2.87
2.78
2.88
2.91
2.83
2.86
2.81
2.74
2.86
2.77
2.86
2.91
2.95
3.13
3.05
3.14
3.21
3.14
3.27
3.18
3.19
3.26
3.13
3.14
3.09
3.13
3.28
3.14
3.24
3.21
3.15
3.27
3.13
3.24
3.2
3.13
3.26
3.11
3.23
3.29
3.16
3.36
3.52
3.51
3.49
3.3
3.35
3.12
3.04
3.16
3.01
2.77
2.7
4.38
5.0
5.0
3.46
2.2
2.23
2.84
2.65
2.72
2.88
2.76
2.85
2.86
2.94
3.01
2.86
3.09
3.0
3.0
2.97
2.84
3.01
3.0
3.05
3.25
3.19
3.32
3.37
3.29
3.46
3.35
3.38
3.43
3.27
3.42
3.27
3.29
3.35
3.25
3.44
3.35
3.33
3.47
3.3
3.42
3.37
3.3
3.38
3.23
3.31
3.25
3.19
3.3
3.16
3.37
3.58
3.54
3.59
3.41
3.33
3.21
3.06
3.25
3.11
2.8
3.13
4.96
5.0
4.84
2.97
2.42
2.47
2.93
2.85
2.78
2.99
2.86
2.9
3.0
2.86
3.09
2.93
3.0
2.99
2.92
3.06
2.96
2.97
3.09
2.96
3.15
3.09
3.09
3.21
3.15
3.18
3.12
3.11
3.21
3.06
3.12
3.14
3.12
3.2
3.07
3.14
3.15
3.11
3.17
3.07
3.03
3.15
3.06
3.11
3.04
3.07
3.11
2.97
3.09
3.18
3.25
3.4
3.16
3.18
3.07
2.87
2.97
2.88
2.72
2.54
3.09
5.0
5.0
3.68
2.54
1.91
2.47
2.6
2.55
2.64
2.55
2.65
2.71
2.62
2.79
2.71
2.74
2.76
2.64
2.71
2.55
2.74
2.77
2.65
2.89
2.84
2.91
3.05
2.93
3.08
3.03
2.92
3.14
2.97
3.01
3.02
2.94
3.11
3.02
3.07
3.07
2.97
3.11
2.98
2.97
3.05
2.9
2.97
2.93
2.93
2.93
2.91
3.01
2.99
3.02
3.29
3.23
3.23
3.23
3.02
3.03
2.88
2.97
2.94
2.55
2.71
4.7
5.0
5.0
2.9
2.15
2.34
2.7
2.7
2.57
2.74
2.7
2.7
2.82
2.7
2.83
2.8
2.74
2.79
2.69
2.84
2.82
2.78
2.95
2.91
3.02
3.13
3.05
3.26
3.23
3.21
3.29
3.16
3.22
3.21
3.14
3.25
3.12
3.2
3.19
3.11
3.3
3.13
3.18
3.18
3.06
3.18
3.1
3.12
3.15
3.05
3.2
3.12
3.15
3.18
3.19
3.5
3.47
3.36
3.44
3.21
3.21
3.07
3.07
3.16
2.72
2.71
4.52
5.0
5.0
3.62
2.13
2.35
2.71
2.78
2.73
2.74
2.85
2.65
2.86
2.8
2.83
3.0
2.87
2.93
2.91
2.86
2.94
2.84
2.96
3.02
3.03
3.19
3.07
3.23
3.31
3.21
3.37
3.21
3.31
3.37
3.2
3.35
3.31
3.28
3.34
3.23
3.34
3.31
3.25
3.34
3.19
3.24
3.24
3.21
3.29
3.17
3.18
3.24
3.13
3.28
3.35
3.59
3.54
3.49
3.52
3.27
3.18
3.26
3.12
3.07
2.8
3.6
5.0
5.0
4.35
2.85
2.32
2.97
2.96
3.01
3.09
3.0
3.14
3.01
3.06
3.19
3.06
3.14
3.12
3.12
3.16
3.05
3.18
3.13
3.15
3.23
3.17
3.25
3.3
3.23
3.34
3.24
3.3
3.32
3.21
3.33
3.23
3.21
3.29
3.22
3.3
3.26
3.31
3.36
3.23
3.33
3.21
3.23
3.27
3.11
3.21
3.19
3.13
3.35
3.39
3.35
3.3
3.09
3.19
3.0
3.0
3.06
2.78
2.8
3.31
5.0
5.0
3.69
2.83
2.16
2.49
2.84
2.7
2.84
2.83
2.78
2.95
2.81
2.93
2.95
2.92
2.99
2.89
2.95
2.93
2.87
3.01
2.95
3.0
3.12
3.0
3.13
3.1
3.06
3.23
3.03
3.19
3.13
3.05
3.2
3.07
3.11
3.12
3.07
3.21
3.13
3.13
3.18
3.06
3.15
3.04
3.09
3.15
2.97
3.15
3.05
3.02
3.2
3.26
3.38
3.25
3.18
3.19
2.9
3.01
3.0
2.83
2.74
2.65
4.87
5.0
4.96
2.73
1.95
2.27
2.64
2.53
2.71
2.61
2.67
2.7
2.7
2.74
2.74
2.7
2.8
2.63
2.67
2.72
2.64
2.79
2.67
2.8
2.83
2.83
3.0
2.97
3.04
3.06
2.99
3.15
3.0
3.04
3.09
2.97
3.18
3.1
3.03
3.19
2.97
3.19
3.18
3.06
3.14
2.97
3.08
3.09
3.0
3.13
3.02
3.09
3.07
2.97
3.25
3.31
3.38
3.36
3.23
3.23
3.1
3.04
3.16
2.95
2.71
2.68
4.87
5.0
5.0
3.16
1.97
2.35
2.78
2.58
2.7
2.74
2.62
2.73
2.7
2.76
2.88
2.78
2.92
2.85
2.8
2.91
2.77
2.92
2.91
2.93
3.02
2.98
3.12
3.13
3.11
3.19
3.06
3.16
3.18
3.06
3.19
3.07
3.12
3.21
3.12
3.21
3.18
3.12
3.25
3.14
3.21
3.15
3.12
3.18
3.08
3.2
3.12
3.12
3.19
3.11
3.16
3.18
3.13
3.49
3.5
3.46
3.47
3.25
3.3
3.18
3.13
3.24
2.82
2.77
4.37
5.0
5.0
4.15
2.2
2.29
2.74
2.88
2.72
2.85
2.86
2.78
2.96
2.84
2.94
2.96
2.88
2.97
2.84
2.91
2.94
2.82
2.98
2.97
3.0
3.11
3.06
3.26
3.11
3.13
3.22
3.06
3.15
3.13
3.05
3.2
3.08
3.15
3.19
3.11
3.21
3.09
3.12
3.19
3.06
3.19
3.13
3.11
3.18
2.98
3.13
3.09
3.05
3.2
3.05
3.15
3.18
3.3
3.53
3.29
3.36
3.31
3.02
3.1
2.96
3.01
2.76
2.45
3.77
5.0
5.0
4.47
2.13
2.14
2.58
2.58
2.68
2.65
2.77
2.71
2.71
2.79
2.67
2.85
2.83
2.71
2.87
2.73
2.78
2.86
2.74
2.95
2.93
2.96
3.07
3.03
3.13
3.06
3.1
3.19
3.1
3.19
3.11
3.11
3.2
3.1
3.16
3.25
3.16
3.25
3.15
3.21
3.19
3.1
3.32
3.12
3.12
3.23
3.13
3.2
3.1
3.19
3.29
3.09
3.25
3.13
3.13
3.44
3.38
3.42
3.37
3.21
3.19
2.98
3.09
3.05
2.74
2.86
4.29
5.0
5.0
2.92
2.33
2.09
2.61
2.65
2.59
2.71
2.63
2.59
2.65
2.52
2.71
2.68
2.7
2.79
2.71
2.76
2.83
2.75
2.84
2.85
2.86
2.93
2.84
3.04
2.88
2.91
3.03
2.92
2.97
2.92
2.89
2.93
2.9
3.0
2.91
2.92
3.03
2.91
2.93
3.0
2.85
3.0
2.84
2.92
2.9
2.82
2.94
2.82
2.85
2.84
2.81
3.15
3.17
2.99
3.0
2.77
2.83
2.71
2.66
2.74
2.29
2.64
4.24
5.0
3.59
