2.35
2.41
2.39
2.42
2.47
2.43
2.51
2.5
2.55
2.53
2.5
2.53
2.5
2.48
2.47
2.43
2.39
2.39
2.34
2.33
2.29
2.29
2.29
2.26
2.28
2.27
2.26
2.2
2.19
2.16
2.08
2.08
2.04
1.99
2.1
2.11
2.28
2.32
2.2
2.1
1.86
1.76
1.66
1.61
1.59
1.52
1.9
2.84
3.15
2.04
1.03
0.83
1.27
1.55
1.6
1.54
1.56
1.61
1.61
1.61
1.62
1.62
1.71
1.66
1.74
1.71
1.73
1.78
1.76
1.73
1.72
1.72
1.72
1.7
1.69
1.68
1.61
1.59
1.61
1.59
1.59
1.53
1.61
1.53
1.51
1.56
1.51
1.47
1.47
1.43
1.47
1.55
1.61
1.79
1.84
1.76
1.6
1.43
1.29
1.24
1.23
1.16
1.19
1.7
2.6
2.78
1.44
0.67
0.6
1.06
1.24
1.19
1.2
1.25
1.21
1.27
1.31
1.34
1.38
1.41
1.45
1.44
1.41
1.36
1.35
1.31
1.28
1.25
1.21
1.18
1.12
1.06
1.02
1.02
0.98
0.98
1.0
0.97
1.04
1.01
1.06
1.1
1.12
1.21
1.26
1.24
1.35
1.53
1.58
1.86
1.89
1.92
1.82
1.68
1.67
1.65
1.7
1.66
1.8
2.44
3.34
3.3
2.02
1.47
1.55
2.08
2.25
2.28
2.32
2.42
2.45
2.45
2.54
2.6
2.67
2.7
2.74
2.84
2.82
2.9
2.93
2.88
2.91
2.93
2.94
2.97
3.01
2.97
2.93
2.98
3.02
2.96
2.95
2.92
2.93
2.88
2.86
2.88
2.84
2.83
2.85
2.83
2.95
2.97
3.17
3.2
3.15
3.03
2.88
2.79
2.68
2.62
2.57
2.56
2.97
3.95
4.08
2.77
2.13
1.88
2.36
2.52
2.46
2.49
2.47
2.43
2.44
2.48
2.45
2.47
2.53
2.53
2.56
2.56
2.48
2.53
2.44
2.45
2.44
2.44
2.43
2.33
2.33
2.36
2.29
2.32
2.31
2.25
2.24
2.25
2.22
2.15
2.13
2.1
2.03
2.06
2.08
2.11
2.23
2.36
2.38
2.31
2.18
2.02
1.92
1.84
1.85
1.71
1.8
2.43
3.34
3.03
1.82
1.38
1.25
1.74
1.91
1.9
1.97
2.02
1.99
2.04
2.09
2.12
2.23
2.25
2.33
2.39
2.4
2.51
2.53
2.78
3.06
3.21
3.33
3.38
3.5
3.49
3.54
3.61
3.64
3.74
3.72
3.73
3.75
3.71
3.74
3.77
3.68
3.73
3.8
3.96
4.11
4.03
4.05
3.84
3.7
3.71
3.61
3.61
3.51
3.65
4.3
5.0
4.46
3.56
3.24
2.91
3.23
3.48
3.5
3.43
3.51
3.49
3.49
3.55
3.55
3.58
3.58
3.55
3.54
3.54
3.55
3.53
3.56
3.54
3.59
3.49
3.49
3.47
3.45
3.35
3.36
3.37
3.32
3.31
3.31
3.33
3.32
3.33
3.3
3.33
3.37
3.45
3.54
3.54
3.49
3.3
3.16
3.12
3.06
2.97
2.89
3.01
3.61
4.31
3.91
2.97
2.89
2.3
2.44
2.76
2.83
2.83
2.82
2.81
2.79
2.81
2.86
2.88
2.88
2.94
2.86
2.86
2.91
2.94
2.93
2.93
2.97
2.97
2.94
2.97
2.95
2.93
2.92
2.9
2.92
2.93
2.89
2.93
2.93
2.92
2.94
2.96
3.09
3.05
3.21
3.29
3.23
3.13
2.95
2.85
2.76
2.73
2.7
2.74
3.24
4.09
3.96
2.84
2.6
2.09
2.35
2.62
2.66
2.66
2.7
2.67
2.73
2.71
2.79
2.79
2.82
2.82
2.79
2.82
2.8
2.83
2.78
2.77
2.84
2.84
2.85
2.81
2.83
2.81
2.79
2.77
2.79
2.79
2.77
2.74
2.77
2.77
2.67
2.65
2.64
2.61
2.69
2.67
2.77
2.89
2.85
2.79
2.58
2.48
2.42
2.28
2.32
2.29
2.67
3.33
3.96
3.09
2.24
1.69
1.8
2.15
2.29
2.24
2.31
2.34
2.29
2.35
2.31
2.38
2.34
2.38
2.45
2.44
2.42
2.49
2.44
2.44
2.41
2.44
2.37
2.36
2.32
2.29
2.25
2.19
2.09
2.07
2.03
1.99
2.03
1.96
2.0
1.96
1.99
2.0
2.0
1.94
1.93
1.92
1.94
1.9
1.95
1.98
1.96
1.97
1.93
1.92
1.95
1.98
1.9
2.09
2.14
2.21
2.39
2.37
2.32
2.19
2.12
2.03
1.98
2.03
2.13
2.55
3.32
3.59
2.33
1.74
1.44
1.76
2.11
2.2
2.19
2.27
2.3
2.3
2.31
2.35
2.32
2.36
2.33
2.38
2.42
2.42
2.49
2.48
2.53
2.48
2.49
2.51
2.48
2.43
2.38
2.41
2.43
2.44
2.48
2.45
2.49
2.52
2.53
2.62
2.64
2.65
2.71
2.69
2.71
2.73
2.69
2.74
2.73
2.77
2.87
2.99
3.12
3.31
3.29
3.27
3.15
3.07
2.98
2.96
2.93
2.96
3.27
3.89
4.55
3.68
2.78
2.37
2.41
2.78
3.01
2.96
2.96
3.05
3.02
3.02
3.06
3.06
3.14
3.09
3.13
3.19
3.14
3.17
3.18
3.19
3.18
3.15
3.13
3.11
3.07
3.01
3.03
3.02
2.95
2.95
2.96
2.94
2.97
2.94
2.94
3.02
2.97
2.96
3.01
2.95
2.97
2.94
2.93
2.92
2.91
2.95
3.06
3.09
3.24
3.3
3.2
3.07
2.95
2.88
2.79
2.86
2.84
3.02
3.61
4.33
3.93
2.61
2.22
2.18
2.57
2.78
2.77
2.82
2.83
2.81
2.86
2.88
2.87
2.91
2.93
2.95
2.98
2.96
3.0
3.0
3.01
3.0
3.0
2.99
2.96
2.93
2.87
2.85
2.83
2.79
2.81
2.78
2.79
2.78
2.8
2.81
2.81
2.78
2.79
2.81
2.85
2.88
2.78
2.8
2.79
2.73
2.79
2.77
2.79
2.73
2.71
2.74
2.74
2.69
2.69
2.79
2.86
2.91
3.02
3.01
2.89
2.79
2.65
2.57
2.6
2.53
2.65
2.92
3.78
4.13
2.89
2.14
1.83
2.2
2.5
2.54
2.6
2.62
2.66
2.6
2.61
2.65
2.71
2.71
2.77
2.79
2.84
2.81
2.82
2.84
2.88
2.8
2.84
2.77
2.77
2.71
2.66
2.7
2.63
2.62
2.65
2.66
2.65
2.71
2.68
2.7
2.7
2.76
2.71
2.7
2.74
2.64
2.65
2.64
2.67
2.65
2.64
2.64
2.65
2.65
2.63
2.63
2.64
2.67
2.64
2.65
2.7
2.85
2.86
3.02
3.08
2.96
2.83
2.71
2.64
2.52
2.53
2.55
2.71
3.23
4.05
3.61
2.23
1.67
1.82
2.22
2.38
2.39
2.42
2.36
2.43
2.48
2.45
2.48
2.56
2.65
2.65
2.69
2.7
2.73
2.75
2.73
2.79
2.8
2.78
2.71
2.73
2.73
2.71
2.71
2.67
2.68
2.62
2.64
2.65
2.62
2.67
2.62
2.65
2.67
2.64
2.7
2.7
2.68
2.67
2.64
2.61
2.58
2.61
2.61
2.6
2.58
2.61
2.58
2.63
2.55
2.6
2.6
2.55
2.6
2.61
2.56
2.7
2.74
2.86
2.9
2.81
2.72
2.55
2.52
2.43
2.42
2.42
2.58
3.12
3.9
3.53
2.35
1.91
1.79
2.18
2.38
2.38
2.39
2.41
2.43
2.44
2.47
2.54
2.51
2.56
2.54
2.55
2.6
2.65
2.67
2.61
2.62
2.64
2.66
2.62
2.6
2.61
2.56
2.53
2.48
2.47
2.47
2.5
2.46
2.48
2.5
2.56
2.55
2.55
2.56
2.58
2.53
2.55
2.55
2.55
2.54
2.59
2.59
2.49
2.52
2.57
2.53
2.54
2.5
2.51
2.5
2.5
2.57
2.66
2.73
2.86
2.83
2.79
2.67
2.55
2.45
2.42
2.42
2.44
2.65
3.34
3.9
2.96
2.29
1.86
1.88
2.25
2.41
2.43
2.42
2.45
2.48
2.51
2.5
2.56
2.61
2.57
2.65
2.65
2.65
2.72
2.71
2.73
2.71
2.7
2.72
2.71
2.71
2.71
2.67
2.73
2.64
2.64
2.67
2.68
2.71
2.7
2.73
2.72
2.7
2.7
2.73
2.77
2.76
2.72
2.7
2.72
2.68
2.71
2.69
2.71
2.71
2.7
2.7
2.71
2.71
2.71
2.71
2.72
2.75
2.88
2.97
3.07
3.09
3.0
2.88
2.74
2.67
2.62
2.58
2.58
2.77
3.36
4.07
3.6
2.38
2.0
1.97
2.37
2.59
2.56
2.57
2.64
2.65
2.7
2.71
2.71
2.82
2.79
2.84
2.85
2.83
2.88
2.85
2.92
2.88
2.86
2.85
2.77
2.77
2.7
2.65
2.62
2.59
2.62
2.55
2.59
2.6
2.58
2.61
2.65
2.61
2.66
2.62
2.67
2.67
2.62
2.61
2.61
2.56
2.6
2.52
2.54
2.55
2.48
2.55
2.58
2.56
2.55
2.6
2.68
2.78
2.88
2.96
2.92
2.84
2.67
2.61
2.53
2.5
2.53
2.57
2.8
3.65
4.06
2.87
2.08
1.7
2.11
2.41
2.44
2.42
2.47
2.47
2.46
2.49
2.52
2.5
2.58
2.62
2.67
2.67
2.7
2.74
2.74
2.71
2.77
2.7
2.71
2.68
2.66
2.71
2.65
2.62
2.6
2.56
2.64
2.61
2.64
2.71
2.65
2.65
2.64
2.65
2.68
2.65
2.65
2.66
2.58
2.62
2.6
2.64
2.58
2.55
2.65
2.53
2.59
2.59
2.66
2.79
2.84
2.97
2.99
2.86
2.78
2.61
2.52
2.47
2.44
2.43
2.47
3.0
3.84
3.52
2.2
1.76
1.79
2.25
2.34
2.42
2.44
2.46
2.5
2.48
2.48
2.48
2.53
2.54
2.53
2.57
2.61
2.62
2.62
2.61
2.64
2.61
2.64
2.62
2.56
2.57
2.55
2.5
2.51
2.49
2.47
2.5
2.51
2.52
2.52
2.54
2.54
2.52
2.55
2.52
2.52
2.52
2.5
2.52
2.53
2.5
2.54
2.5
2.5
2.56
2.64
2.67
2.82
2.88
2.79
2.7
2.57
2.49
2.42
2.41
2.41
2.46
2.86
3.61
3.71
2.38
2.31
1.71
1.87
2.27
2.3
2.33
2.32
2.38
2.33
2.41
2.42
2.44
2.48
2.52
2.55
2.5
2.56
2.57
2.55
2.6
2.57
2.6
2.55
2.56
2.5
2.47
2.48
2.42
2.47
2.44
2.43
2.44
2.49
2.48
2.52
2.52
2.52
2.5
2.51
2.56
2.52
2.49
2.53
2.61
2.71
2.83
2.91
2.92
2.73
2.61
2.52
2.48
2.43
2.37
2.45
2.76
3.46
3.79
2.68
2.43
1.99
1.83
2.27
2.43
2.43
2.47
2.48
2.47
2.52
2.6
2.59
2.53
2.61
2.64
2.62
2.67
2.64
2.69
2.65
2.66
2.68
2.66
2.66
2.65
2.69
2.64
2.6
2.61
2.61
2.65
2.69
2.66
2.65
2.69
2.68
2.69
2.7
2.66
2.68
2.65
2.67
2.68
2.7
2.71
2.71
2.83
2.92
3.07
3.06
3.0
2.9
2.75
2.67
2.64
2.6
2.62
2.74
3.17
3.88
3.77
2.58
2.35
1.91
2.29
2.55
2.62
2.61
2.62
2.64
2.62
2.7
2.7
2.68
2.78
2.74
2.8
2.82
2.84
2.83
2.84
2.84
2.79
2.83
2.82
2.79
2.74
2.77
2.7
2.7
2.74
2.74
2.77
2.82
2.78
2.85
2.83
2.8
2.79
2.81
2.78
2.74
2.76
2.74
2.72
2.76
2.68
2.81
2.9
2.93
3.13
3.05
2.93
2.85
2.7
2.66
2.62
2.64
2.67
2.78
3.27
4.08
3.74
2.37
1.88
1.96
2.39
2.55
2.53
2.54
2.55
2.58
2.53
2.58
2.6
2.6
2.67
2.67
2.72
2.74
2.78
2.74
2.71
2.67
2.67
2.62
2.62
2.61
2.61
2.6
2.55
2.55
2.48
2.55
2.53
2.55
2.6
2.59
2.66
2.65
2.65
2.66
2.67
2.66
2.7
2.68
2.7
2.67
2.65
2.67
2.74
2.89
2.93
3.13
3.1
3.05
2.86
2.75
2.65
2.61
2.61
2.59
2.7
3.14
4.01
3.84
2.47
1.92
1.92
2.45
2.55
2.58
2.64
2.58
2.68
2.65
2.7
2.71
2.71
2.77
2.78
2.83
2.85
2.8
2.85
2.83
2.85
2.78
2.77
2.78
2.78
2.71
2.74
2.7
2.66
2.65
2.68
2.65
2.66
2.62
2.65
2.66
2.67
2.66
2.65
2.7
2.64
2.65
2.64
2.61
2.61
2.6
2.6
2.6
2.77
2.87
2.91
3.01
2.96
2.83
2.67
2.55
2.48
2.45
2.44
2.47
2.79
3.61
3.89
2.64
1.95
1.67
2.08
2.36
2.43
2.4
2.45
2.48
2.51
2.52
2.54
2.58
2.58
2.64
2.67
2.65
2.69
2.67
2.71
2.7
2.69
2.68
2.64
2.63
2.65
2.56
2.6
2.52
2.54
2.57
2.56
2.6
2.56
2.6
2.61
2.56
2.59
2.61
2.58
2.6
2.59
2.59
2.6
2.58
2.59
2.55
2.55
2.63
2.71
2.85
2.96
2.92
2.88
2.66
2.6
2.48
2.5
2.47
2.45
2.78
3.44
3.9
2.86
2.37
1.96
1.87
2.3
2.44
2.38
2.44
2.39
2.45
2.46
2.42
2.5
2.5
2.56
2.58
2.51
2.56
2.59
2.59
2.6
2.6
2.59
2.6
2.59
2.55
2.53
2.51
2.5
2.53
2.51
2.53
2.53
2.54
2.56
2.59
2.56
2.56
2.57
2.54
2.58
2.55
2.53
2.52
2.61
2.7
2.79
2.9
2.95
2.86
2.68
2.62
2.5
2.48
2.42
2.43
2.62
3.12
3.81
3.49
2.4
2.29
1.79
2.03
2.35
2.39
2.41
2.43
2.45
2.45
2.49
2.46
2.5
2.53
2.56
2.56
2.55
2.6
2.6
2.61
2.62
2.64
2.64
2.62
2.64
2.62
2.59
2.6
2.61
2.64
2.6
2.59
2.59
2.65
2.61
2.63
2.66
2.7
2.62
2.65
2.62
2.67
2.66
2.65
2.71
2.64
2.64
2.76
2.84
2.93
3.09
3.1
3.01
2.92
2.78
2.7
2.61
2.64
2.6
2.71
3.17
3.82
3.71
2.51
2.32
1.92
2.24
2.53
2.53
2.5
2.57
2.55
2.59
2.58
2.62
2.65
2.66
2.68
2.7
2.72
2.74
2.73
2.77
2.77
2.72
2.73
2.72
2.68
2.61
2.65
2.62
2.57
2.6
2.64
2.61
2.6
2.64
2.64
2.66
2.64
2.69
2.7
2.67
2.67
2.6
2.62
2.57
2.6
2.62
2.72
2.78
2.85
2.98
2.91
2.81
2.65
2.6
2.5
2.48
2.49
2.47
2.72
3.21
3.84
3.11
2.19
1.87
1.85
2.22
2.38
2.39
2.44
2.44
2.47
2.49
2.5
2.54
2.55
2.59
2.62
2.62
2.63
2.65
2.65
2.7
2.7
2.65
2.67
2.64
2.61
2.56
2.58
2.58
2.53
2.57
2.53
2.6
2.6
2.61
2.62
2.64
2.64
2.65
2.6
2.66
2.61
2.64
2.65
2.61
2.62
2.64
2.55
2.56
2.58
2.6
2.73
2.78
2.93
2.98
2.91
2.72
2.59
2.54
2.44
2.44
2.47
2.54
3.01
3.84
3.82
2.43
1.77
1.79
2.24
2.42
2.44
2.45
2.5
2.51
2.52
2.56
2.58
2.64
2.61
2.56
2.62
2.66
2.69
2.68
2.7
2.67
2.66
2.67
2.61
2.56
2.55
2.53
2.48
2.44
2.43
2.41
2.43
2.43
2.47
2.49
2.53
2.49
2.52
2.52
2.52
2.5
2.51
2.49
2.48
2.47
2.43
2.48
2.47
2.47
2.49
2.47
2.47
2.51
2.64
2.74
2.8
2.77
2.72
2.55
2.47
2.34
2.37
2.38
2.37
2.65
3.36
4.02
3.09
1.99
1.67
2.02
2.33
2.38
2.38
2.43
2.42
2.47
2.49
2.47
2.52
2.56
2.56
2.6
2.62
2.62
2.67
2.67
2.66
2.7
2.69
2.66
2.62
2.62
2.5
2.47
2.46
2.38
2.42
2.42
2.45
2.49
2.47
2.49
2.49
2.5
2.55
2.5
2.48
2.55
2.52
2.54
2.53
2.48
2.51
2.52
2.51
2.5
2.51
2.48
2.48
2.5
2.59
2.67
2.76
2.9
2.93
2.76
2.64
2.53
2.48
2.39
2.44
2.44
2.71
3.42
3.96
2.74
2.32
1.87
1.83
2.25
2.36
2.36
2.41
2.44
2.43
2.46
2.54
2.55
2.55
2.61
2.56
2.61
2.68
2.64
2.73
2.71
2.67
2.7
2.71
2.59
2.63
2.57
2.55
2.54
2.53
2.55
2.54
2.53
2.54
2.57
2.6
2.62
2.67
2.67
2.61
2.61
2.56
2.6
2.57
2.52
2.53
2.56
2.6
2.67
2.71
2.92
2.86
2.77
2.66
2.6
2.48
2.45
2.48
2.48
2.73
3.27
3.91
3.16
2.43
2.14
1.83
2.21
2.43
2.48
2.47
2.54
2.53
2.53
2.62
2.64
2.66
2.67
2.7
2.77
2.76
2.79
2.83
2.81
2.79
2.78
2.79
2.77
2.72
2.77
2.7
2.71
2.72
2.71
2.7
2.73
2.73
2.74
2.78
2.74
2.8
2.78
2.74
2.8
2.76
2.78
2.73
2.78
2.76
2.71
2.79
2.73
2.67
2.73
2.71
2.74
2.82
2.88
2.92
3.11
3.11
3.02
2.91
2.77
2.67
2.64
2.61
2.61
2.79
3.33
4.07
3.6
2.44
1.98
1.96
2.37
2.55
2.53
2.63
2.61
2.6
2.6
2.62
2.67
2.68
2.71
2.74
2.79
2.74
2.81
2.81
2.84
2.78
2.83
2.8
2.71
2.7
2.66
2.64
2.65
2.64
2.61
2.62
2.62
2.65
2.65
2.7
2.67
2.7
2.71
2.7
2.71
2.7
2.7
2.7
2.71
2.62
2.66
2.62
2.65
2.62
2.71
2.81
2.86
3.02
2.96
2.88
2.74
2.65
2.54
2.53
2.48
2.5
2.71
3.37
4.07
3.35
2.17
1.77
1.97
2.38
2.48
2.5
2.51
2.54
2.57
2.56
2.62
2.62
2.68
2.72
2.74
2.79
2.8
2.83
2.85
2.83
2.84
2.79
2.82
2.81
2.78
2.7
2.65
2.64
2.64
2.56
2.58
2.64
2.62
2.65
2.67
2.65
2.66
2.67
2.62
2.62
2.57
2.56
2.51
2.52
2.53
2.52
2.51
2.53
2.5
2.48
2.54
2.62
2.71
2.85
2.85
2.76
2.67
2.48
2.42
2.37
2.36
2.33
2.45
3.05
3.85
3.55
2.22
1.7
1.8
2.25
2.41
2.44
2.46
2.44
2.43
2.43
2.5
2.52
2.57
2.59
2.64
2.64
2.65
2.71
2.71
2.76
2.71
2.72
2.74
2.76
2.71
2.72
2.67
2.63
2.64
2.59
2.65
2.65
2.67
2.64
2.67
2.62
2.66
2.66
2.64
2.66
2.61
2.61
2.58
2.61
2.63
2.6
2.61
2.61
2.6
2.64
2.64
2.77
2.8
2.93
3.05
2.95
2.89
2.74
2.65
2.61
2.55
2.55
2.66
3.01
3.81
3.84
2.6
2.33
1.85
2.15
2.43
2.49
2.51
2.5
2.52
2.52
2.49
2.53
2.51
2.6
2.61
2.62
2.65
2.67
2.68
2.7
2.69
2.71
2.67
2.65
2.65
2.54
2.54
2.52
2.49
2.47
2.5
2.5
2.53
2.49
2.52
2.53
2.56
2.62
2.57
2.61
2.53
2.53
2.53
2.55
2.59
2.66
2.77
2.9
2.92
2.86
2.74
2.59
2.53
2.48
2.48
2.42
2.48
2.87
3.56
3.89
2.65
2.43
1.9
2.03
2.31
2.47
2.48
2.48
2.49
2.55
2.57
2.62
2.62
2.67
2.7
2.73
2.7
2.74
2.73
2.77
2.77
2.74
2.74
2.77
2.71
2.69
2.66
2.66
2.61
2.62
2.65
2.66
2.68
2.74
2.71
2.71
2.7
2.7
2.67
2.71
2.66
2.71
2.67
2.65
2.62
2.66
2.65
2.61
2.64
2.65
2.76
2.83
2.94
3.0
2.87
2.78
2.66
2.53
2.51
2.5
2.49
2.6
3.04
3.72
3.66
2.44
2.2
1.8
2.14
2.43
2.49
2.5
2.5
2.47
2.53
2.53
2.55
2.58
2.58
2.64
2.61
2.65
2.7
2.67
2.71
2.68
2.73
2.71
2.67
2.64
2.58
2.6
2.54
2.5
2.51
2.53
2.51
2.52
2.54
2.56
2.55
2.56
2.58
2.56
2.54
2.55
2.54
2.53
2.47
2.51
2.5
2.53
2.62
2.72
2.83
2.88
2.79
2.7
2.56
2.5
2.39
2.38
2.41
2.45
2.7
3.41
3.9
2.82
2.12
1.7
1.9
2.27
2.38
2.37
2.38
2.43
2.47
2.48
2.5
2.53
2.56
2.61
2.66
2.71
2.7
2.73
2.76
2.71
2.7
2.7
2.72
2.7
2.71
2.67
2.66
2.63
2.64
2.59
2.65
2.66
2.64
2.66
2.66
2.67
2.7
2.69
2.66
2.66
2.66
2.62
2.58
2.62
2.61
2.6
2.61
2.62
2.77
2.83
2.97
3.07
2.96
2.84
2.67
2.61
2.5
2.53
2.55
2.55
2.89
3.63
4.06
2.93
2.04
1.79
2.16
2.45
2.48
2.48
2.52
2.53
2.55
2.6
2.6
2.7
2.74
2.8
2.78
2.86
2.86
2.86
2.87
2.86
2.85
2.83
2.82
2.78
2.74
2.7
2.68
2.7
2.65
2.65
2.7
2.7
2.71
2.71
2.67
2.71
2.71
2.71
2.67
2.67
2.71
2.65
2.71
2.71
2.72
2.71
2.71
2.66
2.62
2.76
2.84
2.98
3.07
2.96
2.88
2.74
2.61
2.52
2.58
2.55
2.62
2.94
3.66
4.06
2.88
2.2
1.8
2.13
2.45
2.47
2.48
2.5
2.51
2.54
2.56
2.57
2.63
2.6
2.7
2.71
2.7
2.72
2.76
2.74
2.71
2.73
2.74
2.71
2.67
2.62
2.65
2.61
2.6
2.61
2.6
2.59
2.65
2.61
2.65
2.65
2.66
2.7
2.7
2.67
2.7
2.68
2.69
2.67
2.65
2.66
2.65
2.66
2.7
2.78
2.83
2.97
2.97
2.95
2.79
2.71
2.56
2.49
2.53
2.46
2.62
3.07
3.77
3.61
2.43
2.26
1.79
2.1
2.39
2.45
2.46
2.52
2.47
2.53
2.51
2.55
2.58
2.6
2.64
2.7
2.64
2.64
2.68
2.7
2.7
2.71
2.66
2.64
2.65
2.61
2.6
2.6
2.59
2.6
2.61
2.6
2.65
2.66
2.67
2.66
2.71
2.69
2.66
2.7
2.71
2.65
2.65
2.67
2.64
2.66
2.64
2.62
2.69
2.8
2.82
2.93
3.06
3.0
2.91
2.73
2.6
2.59
2.5
2.55
2.61
2.89
3.61
4.01
2.82
2.42
1.88
2.07
2.43
2.49
2.5
2.53
2.53
2.59
2.54
2.56
2.64
2.67
2.71
2.77
2.79
2.79
2.79
2.79
2.82
2.8
2.8
2.78
2.78
2.75
2.71
2.72
2.67
2.68
2.7
2.66
2.69
2.67
2.68
2.68
2.69
2.67
2.67
2.67
2.74
2.65
2.64
2.64
2.64
2.64
2.65
2.67
2.64
2.62
2.67
2.73
2.78
2.84
3.02
3.02
2.91
2.74
2.63
2.57
2.5
2.52
2.52
2.68
3.24
4.0
3.31
2.26
1.83
1.85
2.27
2.41
2.44
2.45
2.46
2.45
2.48
2.48
2.5
2.5
2.53
2.61
2.6
2.67
2.66
2.71
2.71
2.7
2.71
2.67
2.61
2.62
2.64
2.54
2.54
2.55
2.55
2.54
2.53
2.58
2.59
2.62
2.6
2.64
2.61
2.6
2.67
2.6
2.62
2.62
2.57
2.57
2.58
2.53
2.52
2.53
2.53
2.6
2.74
2.82
2.98
2.97
2.89
2.77
2.64
2.55
2.5
2.52
2.48
2.61
3.13
3.91
3.71
2.36
1.76
1.76
2.21
2.39
2.39
2.49
2.49
2.5
2.52
2.59
2.53
2.57
2.61
2.67
2.7
2.72
2.71
2.73
2.77
2.73
2.73
2.74
2.7
2.7
2.66
2.61
2.6
2.6
2.56
2.58
2.59
2.61
2.58
2.62
2.6
2.64
2.66
2.61
2.62
2.6
2.61
2.62
2.58
2.58
2.6
2.55
2.56
2.56
2.54
2.53
2.54
2.6
2.64
2.77
2.9
2.88
2.77
2.68
2.56
2.5
2.44
2.46
2.47
2.7
3.33
3.97
3.0
2.29
1.85
1.86
2.24
2.37
2.38
2.38
2.44
2.39
2.45
2.47
2.5
2.53
2.58
2.58
2.64
2.61
2.66
2.65
2.64
2.68
2.66
2.59
2.56
2.55
2.47
2.42
2.41
2.42
2.41
2.44
2.42
2.44
2.47
2.43
2.47
2.49
2.5
2.44
2.47
2.45
2.44
2.47
2.48
2.41
2.46
2.44
2.42
2.45
2.51
2.6
2.7
2.85
2.86
2.78
2.65
2.58
2.5
2.45
2.47
2.42
2.6
3.04
3.75
3.58
2.42
2.27
1.77
2.07
2.36
2.42
2.45
2.44
2.51
2.55
2.55
2.6
2.64
2.68
2.77
2.73
2.76
2.79
2.85
2.87
2.84
2.82
2.84
2.82
2.78
2.78
2.73
2.71
2.71
2.71
2.71
2.71
2.75
2.73
2.77
2.76
2.74
2.78
2.78
2.78
2.76
2.78
2.77
2.74
2.73
2.77
2.71
2.74
2.71
2.71
2.78
2.77
2.88
2.94
3.07
3.17
3.07
2.97
2.86
2.76
2.7
2.67
2.65
2.71
3.06
3.84
4.13
2.82
2.29
1.96
2.27
2.5
2.64
2.61
2.65
2.64
2.68
2.65
2.69
2.68
2.71
2.74
2.79
2.86
2.84
2.88
2.9
2.88
2.93
2.91
2.86
2.83
2.81
2.77
2.71
2.73
2.71
2.7
2.67
2.71
2.71
2.73
2.69
2.71
2.67
2.71
2.71
2.71
2.72
2.7
2.71
2.71
2.67
2.67
2.67
2.65
2.69
2.73
2.82
2.91
3.07
3.04
2.95
2.84
2.71
2.62
2.52
2.49
2.5
2.61
2.94
3.73
3.99
2.71
2.02
1.76
2.2
2.47
2.5
2.5
2.53
2.58
2.58
2.59
2.61
2.62
2.67
2.7
2.65
2.76
2.77
2.81
2.82
2.81
2.79
2.77
2.73
2.71
2.65
2.66
2.59
2.61
2.56
2.6
2.6
2.6
2.61
2.64
2.7
2.63
2.7
2.6
2.68
2.67
2.62
2.66
2.61
2.62
2.64
2.65
2.62
2.64
2.64
2.61
2.66
2.79
2.83
3.0
2.97
2.92
2.79
2.66
2.55
2.53
2.53
2.5
2.5
2.95
3.84
3.9
2.56
1.88
1.79
2.23
2.43
2.46
2.53
2.47
2.53
2.54
2.56
2.6
2.56
2.61
2.64
2.69
2.69
2.71
2.78
2.77
2.77
2.78
2.74
2.7
2.64
2.63
2.61
2.55
2.56
2.54
2.47
2.53
2.51
2.53
2.55
2.51
2.53
2.55
2.54
2.55
2.54
2.54
2.54
2.56
2.57
2.55
2.52
2.51
2.53
2.61
2.64
2.72
2.91
2.86
2.82
2.66
2.55
2.47
2.42
2.41
2.43
2.56
3.02
3.79
3.56
2.35
2.12
1.77
2.07
2.35
2.39
2.38
2.43
2.44
2.48
2.52
2.57
2.55
2.58
2.59
2.62
2.6
2.68
2.65
2.65
2.7
2.67
2.68
2.6
2.57
2.62
2.53
2.5
2.43
2.48
2.48
2.46
2.49
2.5
2.5
2.58
2.55
2.55
2.55
2.52
2.54
2.53
2.53
2.52
2.6
2.69
2.79
2.9
2.93
2.76
2.7
2.53
2.47
2.43
2.39
2.37
2.55
3.05
3.67
3.38
2.31
2.18
1.68
1.91
2.26
2.31
2.33
2.36
2.39
2.33
2.38
2.43
2.44
2.44
2.48
2.5
2.53
2.48
2.52
2.52
2.54
2.58
2.53
2.53
2.5
2.52
2.45
2.47
2.43
2.44
2.4
2.42
2.43
2.44
2.48
2.44
2.5
2.52
2.48
2.56
2.55
2.56
2.6
2.56
2.66
2.76
2.84
2.99
3.0
3.01
2.85
2.68
2.62
2.51
2.53
2.54
2.58
3.03
3.7
3.78
2.55
2.3
1.86
2.11
2.48
2.49
2.5
2.6
2.56
2.61
2.69
2.66
2.7
2.68
2.78
2.77
2.79
2.86
2.86
2.86
2.89
2.86
2.91
2.83
2.76
2.78
2.74
2.71
2.71
2.74
2.73
2.71
2.71
2.74
2.77
2.79
2.78
2.83
2.79
2.86
2.86
2.82
2.82
2.83
2.77
2.78
2.74
2.78
2.84
2.96
3.01
3.17
3.11
3.09
2.92
2.74
2.7
2.62
2.63
2.6
2.76
3.31
4.09
3.87
2.45
1.89
1.93
2.37
2.53
2.48
2.52
2.59
2.56
2.61
2.66
2.59
2.7
2.67
2.76
2.8
2.85
2.86
2.88
2.88
2.86
2.86
2.83
2.8
2.74
2.73
2.68
2.71
2.61
2.64
2.69
2.63
2.66
2.65
2.66
2.71
2.65
2.69
2.7
2.71
2.7
2.7
2.69
2.64
2.61
2.64
2.64
2.63
2.69
2.82
2.87
3.02
3.04
2.93
2.79
2.72
2.57
2.56
2.55
2.5
2.65
3.05
3.91
3.93
2.52
1.83
1.78
2.18
2.4
2.44
2.47
2.48
2.51
2.55
2.49
2.52
2.53
2.56
2.6
2.66
2.71
2.74
2.71
2.7
2.69
2.69
2.66
2.57
2.54
2.58
2.49
2.5
2.45
2.45
2.43
2.44
2.39
2.42
2.45
2.43
2.45
2.47
2.46
2.48
2.47
2.43
2.48
2.38
2.4
2.4
2.41
2.39
2.42
2.39
2.52
2.54
2.71
2.79
2.73
2.66
2.48
2.39
2.29
2.25
2.26
2.26
2.5
3.21
3.84
2.98
1.95
1.55
1.78
2.18
2.21
2.24
2.29
2.32
2.33
2.34
2.3
2.39
2.45
2.47
2.51
2.56
2.57
2.61
2.64
2.61
2.61
2.62
2.57
2.54
2.54
2.52
2.43
2.43
2.42
2.41
2.47
2.45
2.45
2.51
2.53
2.51
2.5
2.5
2.53
2.48
2.48
2.48
2.5
2.47
2.43
2.45
2.44
2.48
2.5
2.45
2.55
2.66
2.73
2.88
2.78
2.72
2.56
2.47
2.44
2.42
2.42
2.42
2.66
3.39
3.92
2.85
2.29
1.8
1.9
2.27
2.41
2.41
2.41
2.43
2.48
2.49
2.47
2.49
2.52
2.56
2.53
2.6
2.62
2.67
2.64
2.66
2.65
2.7
2.65
2.65
2.6
2.59
2.57
2.58
2.55
2.54
2.56
2.58
2.57
2.62
2.6
2.6
2.65
2.64
2.64
2.65
2.58
2.6
2.59
2.6
2.66
2.73
2.83
2.97
2.97
2.91
2.77
2.66
2.6
2.48
2.5
2.5
2.6
3.03
3.76
3.75
2.52
2.35
1.88
2.12
2.43
2.5
2.52
2.55
2.56
2.58
2.6
2.65
2.65
2.65
2.7
2.71
2.75
2.71
2.76
2.79
2.77
2.78
2.79
2.77
2.7
2.68
2.71
2.67
2.65
2.65
2.66
2.66
2.69
2.66
2.69
2.64
2.68
2.73
2.7
2.71
2.7
2.7
2.65
2.66
2.67
2.65
2.66
2.66
2.58
2.64
2.67
2.72
2.77
2.97
3.07
2.97
2.86
2.78
2.68
2.6
2.58
2.6
2.67
3.04
3.81
3.9
2.65
2.26
1.88
2.16
2.48
2.5
2.52
2.6
2.59
2.6
2.6
2.63
2.67
2.71
2.73
2.77
2.77
2.83
2.79
2.82
2.79
2.84
2.84
2.82
2.78
2.75
2.71
2.67
2.66
2.67
2.69
2.66
2.72
2.71
2.71
2.79
2.73
2.79
2.79
2.77
2.81
2.78
2.78
2.78
2.77
2.74
2.76
2.79
2.79
2.94
2.98
3.12
3.21
3.11
2.96
2.9
2.77
2.71
2.71
2.67
2.72
3.02
3.79
4.16
2.93
2.29
1.88
2.15
2.48
2.48
2.54
2.57
2.57
2.64
2.62
2.67
2.71
2.71
2.76
2.77
2.81
2.83
2.84
2.84
2.83
2.84
2.84
2.79
2.76
2.71
2.68
2.65
2.63
2.62
2.62
2.64
2.65
2.65
2.65
2.66
2.65
2.67
2.66
2.67
2.7
2.67
2.7
2.71
2.67
2.68
2.65
2.68
2.67
2.7
2.71
2.85
2.9
3.0
3.05
2.97
2.84
2.73
2.61
2.5
2.56
2.55
2.59
2.98
3.83
3.96
2.6
1.88
1.76
2.18
2.44
2.48
2.47
2.5
2.52
2.53
2.55
2.58
2.6
2.62
2.7
2.7
2.7
2.76
2.76
2.76
2.73
2.77
2.76
2.66
2.71
2.62
2.58
2.57
2.56
2.49
2.54
2.5
2.5
2.55
2.58
2.61
2.59
2.6
2.65
2.64
2.62
2.6
2.58
2.61
2.61
2.6
2.64
2.6
2.61
2.56
2.65
2.76
2.83
2.94
2.93
2.88
2.71
2.64
2.58
2.51
2.52
2.53
2.65
3.19
3.97
3.44
2.36
1.96
1.8
2.23
2.47
2.43
2.48
2.48
2.53
2.5
2.55
2.57
2.6
2.66
2.65
2.71
2.7
2.72
2.73
2.71
2.73
2.71
2.69
2.69
2.59
2.59
2.56
2.53
2.52
2.5
2.5
2.49
2.54
2.55
2.56
2.6
2.61
2.57
2.61
2.6
2.61
2.6
2.59
2.57
2.54
2.57
2.55
2.55
2.7
2.68
2.81
2.93
2.86
2.82
2.61
2.55
2.5
2.39
2.44
2.41
2.68
3.29
3.85
3.0
2.35
2.02
1.79
2.13
2.36
2.43
2.45
2.49
2.47
2.49
2.52
2.53
2.56
2.58
2.6
2.64
2.65
2.66
2.71
2.71
2.74
2.66
2.71
2.7
2.61
2.61
2.59
2.48
2.55
2.53
2.53
2.51
2.56
2.57
2.57
2.61
2.64
2.6
2.64
2.62
2.6
2.58
2.54
2.61
2.65
2.72
2.91
2.91
2.88
2.66
2.62
2.52
2.47
2.45
2.42
2.53
2.88
3.55
3.78
2.51
2.3
1.8
1.88
2.28
2.39
2.42
2.44
2.42
2.48
2.47
2.5
2.5
2.53
2.6
2.64
2.62
2.7
2.71
2.71
2.74
2.76
2.77
2.72
2.7
2.72
2.65
2.67
2.61
2.61
2.61
2.62
2.62
2.64
2.67
2.65
2.7
2.67
2.72
2.7
2.64
2.65
2.64
2.67
2.65
2.69
2.65
2.65
2.75
2.83
2.91
3.06
3.09
3.01
2.89
2.75
2.7
2.59
2.62
2.61
2.74
3.16
3.88
3.86
2.58
2.19
1.89
2.26
2.55
2.56
2.59
2.64
2.61
2.66
2.65
2.69
2.77
2.77
2.81
2.82
2.85
2.88
2.87
2.87
2.88
2.86
2.91
2.83
2.82
2.74
2.72
2.72
2.65
2.65
2.71
2.66
2.71
2.71
2.73
2.74
2.73
2.74
2.79
2.75
2.8
2.74
2.76
2.77
2.74
2.74
2.67
2.71
2.74
2.72
2.89
2.96
3.09
3.09
2.96
2.9
2.71
2.64
2.61
2.55
2.55
2.62
2.97
3.81
4.07
2.85
2.13
1.82
2.25
2.47
2.5
2.55
2.54
2.57
2.6
2.58
2.62
2.64
2.69
2.71
2.73
2.81
2.78
2.83
2.84
2.82
2.85
2.8
2.75
2.76
2.71
2.71
2.62
2.65
2.61
2.62
2.62
2.59
2.64
2.67
2.64
2.64
2.61
2.66
2.64
2.64
2.59
2.62
2.6
2.6
2.55
2.57
2.57
2.58
2.6
2.62
2.71
2.79
2.93
3.03
2.9
2.82
2.67
2.58
2.49
2.45
2.46
2.44
2.69
3.39
4.09
3.25
2.15
1.74
2.06
2.44
2.5
2.5
2.55
2.55
2.57
2.56
2.63
2.62
2.66
2.65
2.68
2.71
2.78
2.78
2.84
2.81
2.83
2.83
2.78
2.76
2.7
2.66
2.63
2.57
2.6
2.51
2.53
2.56
2.55
2.6
2.54
2.57
2.56
2.58
2.56
2.58
2.55
2.61
2.54
2.54
2.56
2.53
2.55
2.55
2.53
2.56
2.55
2.67
2.79
2.84
2.97
2.91
2.86
2.71
2.64
2.51
2.44
2.47
2.44
2.62
3.18
3.93
3.45
2.21
1.7
1.88
2.26
2.41
2.42
2.42
2.44
2.45
2.48
2.52
2.5
2.55
2.6
2.59
2.65
2.7
2.67
2.68
2.71
2.7
2.66
2.7
2.63
2.59
2.59
2.54
2.48
2.5
2.48
2.5
2.48
2.53
2.49
2.47
2.51
2.5
2.5
2.51
2.48
2.52
2.48
2.49
2.5
2.45
2.47
2.47
2.45
2.49
2.48
2.55
2.65
2.7
2.91
2.83
2.73
2.61
2.49
2.41
2.38
2.38
2.35
2.59
3.17
3.83
3.13
2.29
1.96
1.79
2.16
2.35
2.36
2.37
2.44
2.42
2.41
2.48
2.48
2.51
2.54
2.54
2.61
2.61
2.64
2.67
2.67
2.66
2.67
2.66
2.66
2.65
2.6
2.55
2.55
2.6
2.51
2.54
2.6
2.59
2.63
2.65
2.66
2.67
2.67
2.7
2.71
2.66
2.65
2.69
2.64
2.73
2.78
2.92
3.02
3.05
3.01
2.8
2.71
2.64
2.6
2.55
2.57
2.65
3.03
3.8
3.85
2.56
2.43
1.91
2.11
2.48
2.48
2.53
2.51
2.56
2.62
2.54
2.61
2.63
2.61
2.66
2.67
2.71
2.71
2.71
2.78
2.76
2.71
2.73
2.67
2.69
2.64
2.63
2.64
2.64
2.65
2.61
2.64
2.64
2.64
2.69
2.64
2.68
2.67
2.65
2.68
2.65
2.62
2.61
2.61
2.61
2.56
2.55
2.65
2.74
2.79
2.97
2.95
2.88
2.76
2.66
2.56
2.51
2.5
2.5
2.65
3.18
3.85
3.54
2.38
2.17
1.87
2.23
2.51
2.51
2.49
2.56
2.55
2.56
2.65
2.59
2.68
2.7
2.68
2.73
2.77
2.79
2.79
2.83
2.83
2.78
2.79
2.76
2.71
2.73
2.7
2.68
2.71
2.65
2.66
2.65
2.71
2.7
2.67
2.7
2.74
2.71
2.77
2.67
2.71
2.7
2.7
2.69
2.69
2.79
2.91
3.0
3.13
3.0
2.9
2.78
2.66
2.61
2.55
2.52
2.53
2.87
3.54
4.03
2.96
2.26
1.8
2.07
2.43
2.47
2.5
2.52
2.54
2.56
2.59
2.66
2.67
2.7
2.71
2.72
2.79
2.8
2.8
2.84
2.79
2.86
2.76
2.74
2.75
2.71
2.73
2.68
2.67
2.67
2.62
2.66
2.64
2.66
2.65
2.61
2.69
2.65
2.63
2.68
2.66
2.64
2.63
2.59
2.64
2.6
2.7
2.78
2.83
3.05
2.96
2.87
2.71
2.57
2.56
2.48
2.5
2.45
2.61
3.23
4.0
3.61
2.36
1.83
1.93
2.37
2.44
2.46
2.5
2.47
2.49
2.48
2.51
2.61
2.58
2.65
2.68
2.71
2.77
2.78
2.82
2.8
2.79
2.78
2.79
2.78
2.75
2.71
2.68
2.67
2.71
2.65
2.7
2.65
2.67
2.7
2.65
2.69
2.7
2.71
2.67
2.7
2.69
2.67
2.68
2.7
2.67
2.65
2.71
2.79
2.84
3.0
3.02
2.93
2.77
2.64
2.6
2.52
2.51
2.5
2.61
3.03
3.77
3.73
2.38
2.06
1.74
2.08
2.32
2.33
2.36
2.41
2.44
2.43
2.48
2.49
2.52
2.53
2.58
2.57
2.6
2.67
2.71
2.67
2.66
2.69
2.64
2.62
2.61
2.59
2.52
2.52
2.5
2.43
2.48
2.5
2.48
2.52
2.5
2.53
2.52
2.53
2.5
2.49
2.5
2.5
2.5
2.56
2.64
2.76
2.91
2.86
2.84
2.7
2.57
2.52
2.4
2.36
2.37
2.5
2.94
3.71
3.68
2.42
2.24
1.72
1.91
2.27
2.32
2.35
2.39
2.44
2.47
2.52
2.52
2.55
2.61
2.6
2.66
2.62
2.69
2.62
2.71
2.71
2.7
2.68
2.7
2.71
2.67
2.61
2.6
2.6
2.6
2.58
2.57
2.6
2.65
2.63
2.64
2.65
2.66
2.62
2.65
2.7
2.67
2.65
2.64
2.62
2.64
2.66
2.76
2.79
3.0
3.03
2.91
2.78
2.71
2.61
2.52
2.51
2.53
2.64
3.01
3.74
3.81
2.52
2.34
1.84
2.15
2.43
2.48
2.5
2.52
2.58
2.57
2.6
2.64
2.71
2.71
2.71
2.77
2.78
2.84
2.86
2.83
2.86
2.86
2.84
2.83
2.83
2.73
2.78
2.78
2.7
2.73
2.7
2.71
2.73
2.74
2.73
2.71
2.72
2.74
2.7
2.71
2.68
2.7
2.67
2.66
2.68
2.7
2.62
2.7
2.67
2.77
2.85
2.92
3.06
2.98
2.87
2.78
2.65
2.56
2.54
2.52
2.55
2.72
3.43
4.03
3.33
2.2
1.78
1.97
2.36
2.42
2.47
2.43
2.43
2.5
2.45
2.5
2.53
2.6
2.64
2.65
2.67
2.72
2.73
2.74
2.76
2.77
2.77
2.74
2.76
2.71
2.71
2.71
2.67
2.64
2.58
2.6
2.57
2.56
2.61
2.61
2.65
2.66
2.61
2.65
2.7
2.68
2.68
2.65
2.62
2.67
2.64
2.6
2.6
2.61
2.62
2.67
2.83
2.83
2.98
2.99
2.86
2.82
2.7
2.61
2.55
2.54
2.53
2.6
3.01
3.9
3.83
2.5
1.88
1.84
2.25
2.48
2.48
2.5
2.53
2.55
2.55
2.59
2.55
2.61
2.65
2.65
2.7
2.71
2.73
2.82
2.79
2.78
2.83
2.77
2.8
2.73
2.71
2.71
2.69
2.66
2.64
2.67
2.71
2.71
2.73
2.76
2.73
2.78
2.77
2.78
2.74
2.73
2.78
2.74
2.73
2.71
2.73
2.76
2.71
2.72
2.74
2.69
2.79
2.9
2.89
3.07
3.11
3.0
2.9
2.77
2.7
2.6
2.57
2.54
2.6
3.12
3.91
3.88
2.6
2.1
1.88
2.3
2.56
2.53
2.53
2.6
2.64
2.65
2.67
2.68
2.73
2.78
2.73
2.82
2.77
2.79
2.78
2.79
2.82
2.79
2.8
2.79
2.72
2.71
2.65
2.63
2.61
2.56
2.57
2.58
2.6
2.57
2.63
2.65
2.6
2.63
2.64
2.6
2.59
2.58
2.54
2.55
2.54
2.54
2.51
2.5
2.54
2.49
2.45
2.54
2.64
2.67
2.88
2.88
2.78
2.7
2.6
2.51
2.46
2.44
2.42
2.59
3.13
3.82
3.26
2.26
2.08
1.76
2.1
2.33
2.37
2.38
2.42
2.39
2.45
2.46
2.44
2.5
2.5
2.53
2.55
2.54
2.57
2.58
2.61
2.67
2.62
2.64
2.62
2.58
2.58
2.5
2.5
2.49
2.48
2.5
2.48
2.49
2.54
2.55
2.54
2.5
2.54
2.56
2.53
2.56
2.52
2.56
2.56
2.59
2.67
2.77
2.96
2.9
2.83
2.67
2.59
2.52
2.44
2.44
2.45
2.6
3.07
3.8
3.52
2.43
2.27
1.77
2.08
2.36
2.39
2.43
2.42
2.48
2.48
2.48
2.53
2.52
2.55
2.55
2.64
2.64
2.67
2.71
2.71
2.71
2.77
2.74
2.71
2.71
2.66
2.66
2.63
2.65
2.64
2.64
2.65
2.66
2.61
2.66
2.67
2.67
2.67
2.67
2.62
2.67
2.71
2.64
2.7
2.64
2.64
2.65
2.64
2.62
2.66
2.79
2.84
3.0
3.02
2.96
2.8
2.71
2.66
2.52
2.55
2.53
2.69
3.11
3.83
3.68
2.48
2.21
1.85
2.2
2.49
2.48
2.45
2.54
2.54
2.53
2.6
2.61
2.65
2.69
2.74
2.73
2.71
2.81
2.78
2.78
2.82
2.8
2.82
2.77
2.76
2.72
2.7
2.67
2.67
2.66
2.66
2.63
2.67
2.7
2.67
2.67
2.67
2.71
2.74
2.74
2.72
2.74
2.71
2.71
2.7
2.68
2.72
2.82
2.89
3.01
3.05
2.96
2.8
2.71
2.6
2.53
2.5
2.52
2.6
2.88
3.71
3.98
2.72
2.14
1.77
2.11
2.45
2.48
2.52
2.53
2.52
2.55
2.55
2.56
2.64
2.61
2.66
2.68
2.71
2.73
2.73
2.77
2.77
2.76
2.71
2.66
2.67
2.6
2.61
2.62
2.55
2.58
2.57
2.57
2.64
2.6
2.6
2.66
2.65
2.64
2.65
2.65
2.65
2.62
2.7
2.64
2.62
2.65
2.61
2.64
2.77
2.8
2.93
3.07
2.96
2.92
2.74
2.67
2.58
2.58
2.59
2.56
2.83
3.48
4.12
3.3
2.26
1.86
2.03
2.42
2.5
2.51
2.5
2.53
2.56
2.61
2.62
2.61
2.67
2.68
2.72
2.71
2.73
2.75
2.71
2.77
2.76
2.74
2.76
2.7
2.67
2.59
2.61
2.6
2.56
2.6
2.56
2.61
2.62
2.6
2.64
2.64
2.69
2.67
2.64
2.65
2.66
2.68
2.67
2.6
2.62
2.61
2.61
2.71
2.74
2.83
2.96
2.95
2.91
2.74
2.62
2.55
2.48
2.5
2.46
2.64
3.19
3.89
3.54
2.32
2.03
1.84
2.23
2.38
2.43
2.48
2.48
2.5
2.52
2.5
2.55
2.6
2.52
2.6
2.62
2.62
2.65
2.69
2.67
2.67
2.65
2.65
2.62
2.59
2.55
2.5
2.56
2.54
2.47
2.48
2.52
2.52
2.48
2.47
2.5
2.5
2.53
2.49
2.5
2.52
2.55
2.49
2.52
2.51
2.52
2.47
2.61
2.65
2.74
2.88
2.82
2.72
2.55
2.47
2.42
2.37
2.35
2.39
2.59
3.18
3.77
3.06
2.27
2.01
1.74
2.13
2.32
2.36
2.36
2.39
2.41
2.42
2.44
2.52
2.52
2.56
2.58
2.63
2.6
2.64
2.71
2.69
2.7
2.69
2.65
2.7
2.65
2.6
2.6
2.55
2.55
2.57
2.56
2.62
2.57
2.62
2.66
2.61
2.64
2.65
2.62
2.61
2.62
2.6
2.6
2.57
2.6
2.55
2.61
2.65
2.74
2.82
2.93
3.03
2.93
2.8
2.67
2.62
2.53
2.52
2.5
2.57
2.88
3.58
3.87
2.65
2.33
1.84
1.98
2.33
2.4
2.47
2.49
2.52
2.54
2.54
2.6
2.61
2.61
2.66
2.67
2.71
2.74
2.77
2.79
2.8
2.79
2.76
2.77
2.73
2.71
2.69
2.65
2.64
2.65
2.64
2.63
2.65
2.64
2.7
2.67
2.64
2.67
2.64
2.68
2.71
2.65
2.69
2.62
2.67
2.67
2.65
2.67
2.66
2.77
2.82
2.93
3.1
3.02
2.97
2.82
2.7
2.65
2.61
2.57
2.6
2.76
3.31
4.02
3.4
2.41
2.0
1.88
2.25
2.42
2.43
2.44
2.45
2.44
2.48
2.45
2.43
2.5
2.54
2.51
2.58
2.59
2.6
2.6
2.58
2.61
2.56
2.6
2.55
2.5
2.45
2.44
2.39
2.38
2.33
2.37
2.29
2.3
2.3
2.29
2.31
2.29
2.29
2.26
2.25
2.23
2.22
2.16
2.21
2.18
2.18
2.18
2.16
2.16
2.16
2.23
2.29
2.37
2.55
2.5
2.43
2.32
2.23
2.12
2.08
2.03
2.07
2.19
2.65
3.47
3.25
2.0
1.51
1.33
1.79
1.96
2.0
2.04
2.03
2.09
2.08
2.15
2.15
2.18
2.25
2.25
2.29
2.36
2.35
2.36
2.39
2.39
2.39
2.42
2.42
2.35
2.31
2.3
2.29
2.29
2.25
2.29
2.28
2.28
2.29
2.31
2.31
2.36
2.37
2.38
2.37
2.38
2.43
2.41
2.44
2.42
2.39
2.39
2.42
2.39
2.41
2.39
2.45
2.56
2.64
2.77
2.78
2.71
2.6
2.49
2.43
2.33
2.33
2.33
2.37
2.85
3.66
3.61
2.33
1.78
1.63
1.98
2.21
2.25
2.22
2.27
2.27
2.28
2.34
2.32
2.37
2.38
2.42
2.45
2.46
2.5
2.54
2.5
2.51
2.5
2.47
2.45
2.45
2.42
2.38
2.42
2.38
2.34
2.37
2.35
2.39
2.39
2.41
2.45
2.45
2.42
2.48
2.47
2.48
2.47
2.45
2.5
2.45
2.45
2.45
2.43
2.45
2.41
2.39
2.41
2.5
2.58
2.69
2.74
2.74
2.64
2.5
2.36
2.28
2.32
2.27
2.35
2.69
3.4
3.71
2.47
2.14
1.64
1.76
2.17
2.26
2.26
2.34
2.32
2.37
2.39
2.43
2.42
2.49
2.49
2.54
2.53
2.56
2.58
2.65
2.66
2.67
2.62
2.6
2.63
2.54
2.5
2.52
2.5
2.5
2.45
2.48
2.47
2.5
2.53
2.5
2.55
2.52
2.55
2.54
2.59
2.54
2.56
2.55
2.55
2.53
2.55
2.57
2.58
2.52
2.66
2.71
2.82
2.94
2.91
2.87
2.73
2.62
2.61
2.53
2.55
2.55
2.74
3.26
3.92
3.41
2.49
2.18
1.91
2.23
2.52
2.55
2.53
2.61
2.59
2.61
2.69
2.64
2.75
2.71
2.74
2.77
2.79
2.83
2.86
2.84
2.91
2.93
2.92
2.88
2.86
2.85
2.75
2.73
2.78
2.69
2.72
2.67
2.7
2.68
2.68
2.71
2.76
2.72
2.74
2.77
2.76
2.78
2.71
2.77
2.73
2.73
2.71
2.7
2.73
2.74
2.82
2.86
2.99
3.12
3.0
2.94
2.81
2.71
2.62
2.62
2.64
2.65
2.94
3.65
4.13
2.96
2.48
1.97
2.13
2.5
2.59
2.55
2.6
2.64
2.64
2.65
2.68
2.71
2.76
2.71
2.79
2.81
