2.78
2.92
3.02
2.79
2.88
2.65
2.64
2.81
2.65
2.71
2.67
3.37
5.0
4.66
2.74
2.1
1.97
2.48
2.45
2.58
2.61
2.55
2.79
2.6
2.77
2.83
2.6
2.91
2.8
2.84
3.03
2.8
3.13
3.0
3.03
3.21
2.89
3.19
2.99
2.88
2.93
2.63
2.76
2.72
2.58
2.79
2.64
2.73
2.72
2.69
2.92
2.71
2.77
2.87
2.64
2.91
2.71
2.84
3.01
2.88
2.94
2.89
2.83
2.92
2.73
2.88
2.86
2.81
3.03
2.82
3.01
3.11
2.8
3.02
2.67
2.71
2.81
2.65
2.73
2.54
2.91
4.12
5.0
3.99
2.51
2.28
2.36
2.41
2.71
2.64
2.58
2.82
2.67
2.77
2.73
2.67
2.97
2.73
2.89
3.04
2.92
3.16
3.09
3.14
3.25
3.07
3.25
3.11
2.95
3.04
2.77
2.92
2.81
2.66
2.86
2.71
2.9
2.86
2.77
2.94
2.78
2.94
2.9
2.7
3.05
2.79
2.77
2.85
2.61
2.79
2.58
2.7
2.84
2.58
2.89
2.67
2.79
2.93
2.82
3.06
2.93
2.88
2.87
2.53
2.77
2.74
2.51
2.69
2.76
3.84
5.0
3.46
2.33
2.27
2.12
2.52
2.39
2.68
2.56
2.55
2.68
2.63
2.79
2.68
2.62
2.8
2.71
2.88
2.83
2.88
3.11
2.94
3.01
3.16
2.89
3.19
2.93
2.97
2.93
2.66
2.84
2.79
2.67
2.79
2.61
2.7
2.67
2.73
2.88
2.6
2.83
2.76
2.65
2.92
2.74
2.79
2.77
2.61
2.86
2.65
2.86
2.95
2.86
3.13
2.94
2.83
2.91
2.65
2.81
2.67
2.62
2.84
3.06
4.54
4.77
2.63
2.64
2.11
2.25
2.56
2.5
2.78
2.62
2.67
2.78
2.62
2.82
2.7
2.74
2.88
2.77
2.97
2.77
2.91
3.04
2.91
3.07
2.95
2.93
2.99
2.77
2.85
2.71
2.65
2.74
2.54
2.71
2.67
2.52
2.82
2.73
2.8
2.92
2.77
2.97
2.86
2.79
2.97
2.74
3.0
2.85
2.76
2.89
2.8
2.97
3.0
3.05
3.13
2.78
2.81
2.7
2.53
2.76
2.5
2.67
3.54
4.59
4.34
2.2
2.28
2.06
2.27
2.62
2.61
2.56
2.71
2.5
2.71
2.77
2.65
2.86
2.71
2.79
2.89
2.8
2.93
2.85
3.0
3.1
2.83
3.13
3.0
2.88
2.93
2.74
2.89
2.7
2.7
2.84
2.64
2.73
2.8
2.71
2.92
2.7
2.86
2.82
2.67
3.01
2.71
2.87
2.88
2.7
2.91
2.73
2.81
2.99
2.84
3.07
3.02
3.09
3.15
2.76
2.79
2.75
2.61
2.76
2.55
2.89
3.77
4.99
4.38
2.32
2.08
2.25
2.47
2.74
2.51
2.55
2.73
2.58
2.84
2.7
2.78
2.91
2.66
2.9
2.87
2.91
3.03
2.88
3.13
2.96
3.07
3.29
2.97
3.09
2.97
2.74
2.98
2.65
2.83
2.86
2.71
2.82
2.7
2.86
2.93
2.71
2.89
2.78
2.73
2.88
2.7
2.93
2.83
2.76
2.89
2.71
2.8
2.74
2.71
2.9
2.79
3.03
3.09
3.03
3.13
2.94
2.85
2.86
2.58
2.84
2.66
2.54
2.8
3.73
5.0
4.12
2.19
2.23
2.04
2.65
2.64
2.54
2.78
2.6
2.73
2.79
2.71
2.85
2.77
2.84
2.85
2.67
3.06
2.86
2.99
3.13
2.89
3.1
2.99
2.89
3.03
2.74
2.74
2.84
2.65
2.85
2.6
2.76
2.78
2.65
2.86
2.66
2.79
2.83
2.67
2.91
2.76
2.83
2.82
2.66
2.86
2.77
2.66
2.85
2.65
2.84
2.73
2.85
3.01
2.91
3.16
3.08
2.87
2.93
2.64
2.67
2.73
2.55
2.73
2.81
3.79
5.0
3.94
2.42
2.09
2.04
2.7
2.48
2.66
2.66
2.7
2.71
2.61
2.8
2.74
2.65
2.84
2.83
2.85
3.02
2.88
3.05
2.93
3.01
3.1
2.93
3.15
2.92
2.87
2.96
2.7
2.81
2.71
2.74
2.87
2.66
2.86
2.81
2.77
2.86
2.78
2.88
2.86
2.74
2.94
2.71
2.88
2.94
2.74
2.95
2.71
2.85
2.86
2.78
3.09
3.02
3.12
3.13
2.94
2.91
2.74
2.71
2.77
2.53
2.59
2.92
3.7
5.0
3.91
2.32
2.19
2.11
2.65
2.55
2.67
2.77
2.56
2.8
2.71
2.87
2.91
2.74
2.98
2.92
2.85
3.05
2.86
3.13
3.11
2.92
3.23
3.04
3.08
3.05
2.88
3.03
2.77
2.85
2.93
2.78
2.93
2.79
2.79
2.97
2.72
2.99
2.92
2.84
3.04
2.82
2.96
2.88
2.91
2.97
2.68
3.04
3.1
2.92
3.3
3.06
3.28
3.0
2.86
2.95
2.77
2.82
2.8
2.69
3.37
4.54
4.83
2.93
2.47
2.38
2.24
2.52
2.85
2.54
2.71
2.78
2.72
2.89
2.73
2.88
2.92
2.76
2.98
2.86
2.88
3.09
2.88
3.1
3.01
3.05
3.13
2.88
3.08
2.83
2.85
2.83
2.69
2.73
2.78
2.74
2.87
2.71
2.9
2.84
2.71
2.92
2.78
2.88
2.88
2.77
2.78
2.76
2.84
2.88
2.76
3.05
3.0
2.94
3.09
2.74
2.86
2.7
2.61
2.83
2.51
2.8
3.66
4.74
4.13
2.28
2.41
2.13
2.26
2.61
2.52
2.66
2.67
2.58
2.85
2.71
2.71
2.97
2.7
2.95
2.89
2.84
3.0
2.88
3.04
3.05
2.93
3.2
2.87
2.95
2.96
2.76
2.84
2.71
2.85
2.84
2.68
2.87
2.7
2.78
2.89
2.71
2.88
2.82
2.79
2.93
2.71
2.93
2.89
2.77
2.97
2.74
2.85
2.92
2.84
3.2
3.02
3.15
3.2
2.95
2.95
2.79
2.74
2.83
2.64
2.74
2.87
3.88
5.0
3.82
2.28
2.03
2.06
2.56
2.38
2.57
2.65
2.5
2.79
2.67
2.76
2.92
2.71
2.96
2.85
2.91
3.11
2.88
3.13
3.06
3.05
3.2
3.0
3.1
3.05
2.84
2.97
2.81
2.86
2.8
2.78
2.88
2.67
2.86
2.83
2.76
2.92
2.83
2.83
3.09
2.78
2.97
2.86
2.78
3.05
2.79
2.94
2.88
2.78
2.96
2.77
2.93
2.96
2.92
3.14
2.98
3.2
3.18
2.85
3.01
2.76
2.74
2.85
2.48
2.96
3.54
5.0
4.95
2.47
2.36
2.11
2.42
2.8
2.54
2.73
2.78
2.53
2.95
2.66
2.84
2.86
2.71
2.93
2.79
2.83
3.02
2.91
3.13
2.96
3.05
3.06
2.88
3.07
2.88
2.73
2.88
2.65
2.73
2.71
2.62
2.77
2.69
2.81
2.83
2.66
2.92
2.67
2.71
2.9
2.8
2.93
2.77
2.79
2.9
2.67
2.92
2.78
2.73
2.91
2.72
2.8
2.79
2.66
2.9
2.74
2.89
2.85
2.92
3.12
3.06
3.07
3.18
2.81
2.92
2.65
2.78
2.82
2.48
3.02
4.09
5.0
4.08
2.2
2.29
2.18
2.5
2.79
2.53
2.74
2.75
2.65
2.93
2.74
2.82
2.94
2.75
2.98
2.84
2.93
3.07
2.86
3.11
2.91
3.0
3.15
2.86
3.05
2.94
2.74
2.86
2.67
2.83
2.7
2.72
2.82
2.65
2.78
2.79
2.67
2.86
2.84
2.81
2.97
2.77
2.94
2.74
2.82
2.91
2.67
2.78
2.77
2.67
2.83
2.65
2.82
2.84
2.73
2.83
2.71
2.79
2.79
2.7
2.92
2.77
2.72
2.91
2.71
3.02
2.88
3.02
3.11
2.83
2.91
2.62
2.71
2.81
2.51
2.7
3.34
4.81
4.99
2.63
2.35
2.09
2.26
2.68
2.58
2.68
2.71
2.53
2.86
2.71
2.76
2.84
2.77
2.91
2.86
2.82
2.96
2.85
2.98
3.0
2.92
3.07
2.97
3.02
2.95
2.79
2.93
2.7
2.73
2.77
2.6
2.79
2.64
2.7
2.86
2.58
2.83
2.73
2.7
2.88
2.65
2.87
2.77
2.67
2.89
2.6
2.89
2.77
2.63
2.89
2.6
2.76
2.83
2.66
2.84
2.7
2.84
2.84
2.64
2.93
2.74
2.77
2.9
2.74
2.93
2.99
3.07
3.17
2.83
2.95
2.71
2.62
2.85
2.58
2.69
2.89
3.96
5.0
3.48
2.29
2.2
2.1
2.62
2.51
2.62
2.73
2.54
2.74
2.77
2.76
2.91
2.65
2.88
2.79
2.84
3.0
2.84
3.01
3.05
2.98
3.14
2.97
3.16
3.03
2.84
2.97
2.78
2.78
2.78
2.64
2.79
2.72
2.76
2.9
2.71
2.93
2.8
2.82
2.93
2.76
2.92
2.83
2.7
2.9
2.72
2.77
2.85
2.71
2.88
2.7
2.79
2.88
2.66
2.91
2.84
2.76
3.09
2.77
3.05
3.02
2.94
3.12
2.82
2.85
2.76
2.64
2.88
2.55
2.71
3.54
4.59
4.56
2.35
2.53
2.11
2.26
2.68
2.56
2.64
2.73
2.6
2.8
2.67
2.8
2.89
2.66
2.91
2.86
2.81
3.02
2.87
3.02
3.09
2.92
3.19
2.95
2.99
3.0
2.74
2.88
2.7
2.73
2.79
2.58
2.82
2.69
2.69
2.9
2.63
2.9
2.79
2.73
2.91
2.68
2.81
2.87
2.71
2.92
2.65
2.79
2.77
2.7
2.87
2.66
2.7
2.87
2.64
2.79
2.74
2.74
3.02
2.77
3.06
3.03
2.97
3.09
2.7
2.83
2.74
2.59
2.84
2.53
3.13
4.51
4.99
3.2
2.2
2.14
2.33
2.43
2.65
2.51
2.67
2.8
2.57
2.81
2.71
2.66
2.83
2.65
2.88
2.86
2.77
3.09
2.86
3.0
3.02
2.93
3.12
2.86
2.96
3.0
2.62
2.88
2.7
2.71
2.77
2.61
2.78
2.65
2.62
2.88
2.6
2.84
2.78
2.61
2.93
2.7
2.84
2.72
2.65
2.88
2.7
2.82
2.84
2.67
2.83
2.71
2.78
2.84
2.7
2.79
2.77
2.74
2.9
2.82
3.03
3.02
3.07
3.02
2.86
2.88
2.78
2.64
2.85
2.57
2.61
3.01
4.2
5.0
3.45
2.21
2.18
2.19
2.65
2.55
2.64
2.78
2.55
2.79
2.73
2.71
2.79
2.68
2.84
2.91
2.83
3.05
2.77
3.04
3.06
2.9
3.2
2.92
3.07
3.06
2.78
3.0
2.72
2.71
2.81
2.62
2.84
2.65
2.76
2.92
2.71
2.91
2.83
2.81
2.97
2.74
2.92
2.88
2.81
2.93
2.77
2.77
2.84
2.71
2.97
2.73
2.78
2.89
2.68
2.94
2.74
2.78
2.98
2.67
2.93
2.94
2.93
3.13
3.02
3.09
2.97
2.73
2.91
2.57
2.71
2.82
2.55
3.31
4.67
5.0
3.1
2.18
2.2
2.38
2.59
2.79
2.52
2.73
2.79
2.66
2.91
2.67
2.82
2.91
2.72
2.96
2.84
3.02
2.97
2.87
3.19
3.02
3.02
3.23
2.94
3.02
2.82
2.9
2.9
2.67
2.85
2.78
2.7
2.96
2.67
2.84
2.83
2.68
2.95
2.7
2.94
2.94
2.71
2.96
2.8
2.86
2.86
2.7
2.93
2.83
2.79
3.0
2.77
2.88
2.88
2.76
2.95
2.71
2.95
2.8
2.74
3.02
2.83
3.01
3.01
3.02
3.19
2.85
3.05
2.93
2.65
2.84
2.7
2.67
2.84
3.72
5.0
4.4
2.33
2.38
1.96
2.56
2.64
2.53
2.79
2.58
2.79
2.86
2.62
2.88
2.67
2.77
2.91
2.78
2.97
2.9
2.97
3.08
2.92
3.1
3.04
2.97
3.14
2.84
3.0
2.78
2.74
2.92
2.65
2.81
2.77
2.67
2.85
2.62
2.82
2.86
2.74
2.93
2.77
2.83
2.9
2.67
2.93
2.78
2.83
3.02
2.67
2.88
2.78
2.7
2.92
2.65
2.88
2.82
2.8
2.9
2.73
2.89
3.01
2.92
3.23
3.07
3.09
3.01
2.73
2.92
2.64
2.73
2.8
2.65
3.68
4.74
4.52
2.56
2.41
2.21
2.41
2.52
2.78
2.57
2.73
2.65
2.64
2.97
2.71
2.79
2.9
2.78
2.94
2.78
2.92
3.11
2.83
3.05
2.99
2.95
3.11
2.94
3.0
2.81
2.67
2.9
2.66
2.77
2.77
2.66
2.8
2.66
2.78
2.84
2.71
2.87
2.71
2.77
2.87
2.65
2.94
2.68
2.71
2.82
2.62
2.83
2.61
2.65
2.83
2.57
2.88
2.94
2.95
3.16
2.84
2.99
2.78
2.62
2.82
2.53
2.7
2.67
2.88
4.37
4.82
3.0
2.52
2.23
2.23
2.38
2.58
2.74
2.57
2.71
2.73
2.72
2.89
2.66
2.89
2.8
2.83
2.84
2.86
2.96
2.99
2.93
3.12
2.91
3.0
3.07
2.71
2.88
2.73
2.67
2.8
2.55
2.78
2.69
2.55
2.76
2.62
2.73
2.71
2.67
2.88
2.71
2.85
2.82
2.67
2.88
2.7
2.78
2.85
2.71
2.85
2.71
2.73
2.89
2.76
2.98
2.96
3.04
3.13
2.84
2.92
2.8
2.61
2.85
2.58
2.71
3.12
4.02
5.0
3.07
2.49
2.29
2.01
2.66
2.54
2.65
2.7
2.67
2.84
2.71
2.7
2.9
2.71
2.89
2.84
2.77
3.08
2.8
3.0
3.04
2.95
3.15
2.89
3.06
3.03
2.79
2.87
2.67
2.79
2.89
2.64
2.84
2.74
2.71
2.89
2.69
2.92
2.82
2.84
3.05
2.78
3.01
2.87
2.83
3.11
2.74
2.88
2.88
2.74
2.99
2.71
2.89
2.97
2.71
3.01
2.86
2.97
3.25
3.02
3.18
2.97
2.83
2.88
2.66
2.79
2.74
2.58
3.13
4.38
5.0
3.37
2.04
2.14
2.25
2.55
2.67
2.45
2.72
2.61
2.64
2.88
2.64
2.85
2.8
2.73
2.93
2.78
2.98
2.95
2.89
3.09
2.96
3.12
2.94
2.89
3.13
2.83
2.82
2.88
2.58
2.84
2.65
2.76
2.82
2.66
2.88
2.73
2.73
2.92
2.73
2.97
2.81
2.78
2.96
2.77
2.92
2.82
2.74
2.89
2.79
2.84
2.83
2.74
2.95
2.73
2.83
2.89
2.67
2.86
2.78
2.91
3.16
2.92
3.21
3.03
2.96
2.97
2.7
2.66
2.84
2.66
2.85
3.11
4.64
5.0
3.33
2.42
1.96
2.41
2.82
2.57
2.86
2.67
2.83
2.93
2.65
2.93
2.88
2.8
3.05
2.88
2.97
3.02
2.96
3.18
2.98
3.15
3.13
3.01
3.24
2.97
2.95
2.99
2.76
2.89
2.68
2.85
2.81
2.67
2.93
2.8
2.83
3.0
2.74
2.92
2.89
2.83
2.97
2.77
2.95
2.95
2.77
3.02
2.73
2.86
2.91
2.87
2.91
2.84
2.89
2.93
2.73
2.96
2.87
2.9
3.0
2.75
3.04
3.02
2.97
3.24
3.13
3.19
3.0
2.77
2.97
2.7
2.85
2.71
2.83
3.83
4.89
4.54
2.55
2.26
2.22
2.42
2.65
2.7
2.6
2.83
2.69
2.73
2.93
2.69
2.88
2.79
2.77
2.98
2.79
3.06
3.01
2.95
3.15
3.0
3.12
3.13
2.88
3.09
2.76
2.83
2.89
2.66
2.86
2.74
2.67
2.84
2.64
2.78
2.79
2.74
2.93
2.71
2.91
2.86
2.79
2.88
2.71
2.79
2.86
2.7
2.86
2.71
2.78
2.89
2.64
2.79
2.77
2.71
2.85
2.64
2.85
2.88
2.82
3.11
2.91
3.07
2.96
2.66
2.87
2.62
2.65
2.73
2.5
2.99
4.05
4.97
3.4
2.24
2.35
2.11
2.39
2.61
2.48
2.71
2.6
2.65
2.8
2.66
2.83
2.78
2.71
2.91
2.67
2.9
2.93
2.81
3.13
2.88
3.02
3.08
2.84
3.04
2.85
2.67
2.91
2.53
2.84
2.64
2.57
2.78
2.62
2.78
2.73
2.66
2.83
2.67
2.8
2.86
2.67
2.91
2.61
2.81
2.82
2.65
2.89
2.71
2.7
2.78
2.64
2.77
2.63
2.65
2.77
2.67
2.73
2.74
2.64
2.84
2.68
2.94
2.97
2.96
3.15
2.82
2.83
2.8
2.54
2.81
2.6
2.64
2.89
4.07
5.0
3.78
2.14
2.18
2.07
2.62
2.53
2.5
2.71
2.5
2.7
2.73
2.62
2.83
2.67
2.84
2.86
2.73
2.93
2.88
3.0
2.96
2.96
3.11
2.93
2.86
3.02
2.77
2.9
2.61
2.71
2.8
2.55
2.77
2.67
2.62
2.82
2.57
2.81
2.76
2.71
2.86
2.73
2.83
2.88
2.63
2.91
2.71
2.83
2.9
2.6
2.9
2.73
2.71
2.84
2.6
2.85
2.72
2.72
2.89
2.62
2.86
2.78
2.71
2.93
2.78
2.95
3.03
2.97
3.09
2.89
2.77
2.78
2.58
2.87
2.62
2.65
3.33
4.55
5.0
3.02
2.2
2.19
2.19
2.7
2.6
2.53
2.83
2.53
2.83
2.82
2.65
2.88
2.74
2.83
2.97
2.72
3.09
2.95
3.0
3.12
2.98
3.16
2.98
3.04
3.09
2.82
2.9
2.74
2.62
2.88
2.7
2.77
2.79
2.67
2.9
2.78
2.8
2.97
2.71
2.96
2.8
2.86
2.92
2.78
2.93
2.78
2.76
2.94
2.74
2.92
2.89
2.77
2.93
2.79
2.95
2.93
2.87
3.0
2.86
2.94
2.97
2.86
3.06
2.97
3.07
3.24
2.97
3.11
2.89
2.75
2.83
2.67
2.86
2.86
3.46
4.94
4.72
2.71
2.58
2.08
2.6
2.64
2.8
2.87
2.69
3.02
2.76
2.91
2.97
2.78
3.01
2.87
2.87
3.05
2.95
3.15
3.09
3.14
3.25
2.98
3.23
3.11
3.01
3.14
2.8
2.88
2.94
2.67
2.92
2.71
2.84
2.98
2.73
2.98
2.82
2.87
2.97
2.7
3.05
2.86
2.83
2.96
2.74
2.97
2.85
2.71
2.95
2.69
2.8
2.8
2.71
2.86
2.79
2.99
3.13
2.86
3.1
2.79
2.74
2.8
2.54
2.76
2.58
2.48
3.2
4.2
4.88
2.68
2.45
2.26
2.07
2.5
2.57
2.52
2.72
2.5
2.71
2.71
2.64
2.82
2.71
2.71
2.89
2.74
2.97
2.89
2.91
3.07
2.88
3.06
2.97
3.0
3.02
2.81
2.94
2.78
2.67
2.95
2.7
2.8
2.77
2.83
2.96
2.81
2.89
3.02
2.81
2.98
2.88
2.94
2.98
2.71
3.05
2.89
2.82
3.03
2.73
2.92
2.86
2.74
2.96
2.77
2.94
3.05
2.88
3.19
3.05
3.05
2.96
2.8
2.85
2.71
2.7
2.82
2.58
3.16
4.42
5.0
3.72
2.11
2.32
2.3
2.49
2.8
2.64
2.8
2.91
2.71
2.96
3.02
2.92
3.12
3.04
3.07
3.12
3.14
3.18
2.94
3.21
3.05
3.05
3.12
2.92
3.1
2.89
2.79
2.85
2.6
2.79
2.65
2.51
2.86
2.55
2.72
2.78
2.64
2.83
2.69
2.71
2.83
2.54
2.85
2.69
2.7
2.82
2.55
2.78
2.71
2.71
2.77
2.58
2.81
2.57
2.77
3.07
2.88
3.2
3.07
2.89
3.0
2.62
2.71
2.78
2.59
2.71
2.73
3.7
5.0
4.34
2.29
2.01
2.01
2.53
2.48
2.65
2.57
2.51
2.78
2.5
2.68
2.71
2.65
2.81
2.67
2.77
2.91
2.74
3.03
2.86
2.93
3.11
2.77
3.02
2.78
2.77
2.86
2.59
2.76
2.67
2.66
2.79
2.59
2.78
2.79
2.7
2.91
2.69
2.85
2.91
2.79
3.0
2.74
2.84
2.85
2.76
2.96
2.86
2.81
3.03
2.61
2.93
2.84
2.93
3.12
3.02
3.28
3.12
2.92
2.97
2.71
2.84
2.91
2.72
3.0
3.46
4.76
5.0
2.68
2.78
2.13
2.35
2.74
2.67
2.83
2.72
2.84
3.03
2.73
2.94
2.92
2.85
3.09
2.71
3.04
3.05
2.94
3.27
3.07
3.13
3.16
2.94
3.17
2.85
2.93
2.97
2.73
2.93
2.74
2.73
2.88
2.59
2.83
2.77
2.77
2.9
2.59
2.85
2.78
2.6
2.86
2.67
2.73
2.71
2.55
2.83
2.63
2.61
2.93
2.73
2.95
3.03
2.92
2.99
2.58
2.76
2.64
2.65
2.67
2.44
2.91
4.09
4.95
3.75
2.23
2.16
2.15
2.42
2.77
2.47
2.71
2.77
2.61
2.82
2.69
2.69
2.96
2.67
2.93
2.84
2.86
3.1
2.83
2.97
3.1
2.96
3.14
2.84
2.98
2.92
2.82
2.9
2.64
2.89
2.83
2.67
2.84
2.72
2.78
2.92
2.63
2.83
2.84
2.82
2.91
2.72
2.88
2.84
2.76
2.89
2.65
2.84
2.79
2.67
2.99
2.83
2.94
3.15
2.92
3.04
2.77
2.74
2.84
2.55
2.76
2.61
2.54
3.46
4.71
4.84
2.54
2.09
2.22
2.3
2.62
2.64
2.56
2.71
2.6
2.82
2.73
2.65
2.84
2.78
2.81
2.86
2.79
2.93
2.93
2.93
3.13
2.9
3.09
2.97
2.92
2.98
2.74
2.81
2.88
2.58
2.89
2.64
2.74
2.78
2.64
2.84
2.73
2.86
2.88
2.68
2.91
2.74
2.77
2.91
2.7
2.86
2.78
2.62
2.88
2.63
2.77
2.78
2.76
3.02
2.78
3.18
3.19
2.83
3.03
2.67
2.71
2.73
2.61
2.74
2.52
3.17
4.79
4.93
2.98
2.08
1.92
2.39
2.41
2.62
2.52
2.64
2.84
2.65
2.82
2.79
2.71
2.88
2.61
2.8
2.94
2.71
3.07
2.87
3.1
3.06
2.9
3.1
2.87
2.88
2.94
2.6
2.85
2.74
2.7
2.88
2.62
2.81
2.78
2.65
2.89
2.64
2.84
2.82
2.71
2.85
2.78
2.8
2.8
2.71
2.91
2.62
2.76
2.77
2.62
2.91
2.82
2.79
3.05
2.93
3.19
2.99
2.77
2.89
2.64
2.81
2.81
2.61
2.86
3.38
4.8
4.63
2.2
2.48
1.96
2.44
2.78
2.55
2.8
2.61
2.66
2.85
2.67
2.88
2.86
2.79
3.0
2.78
2.93
2.91
2.74
3.2
2.97
2.96
3.06
2.86
3.17
2.86
2.9
2.91
2.67
2.94
2.74
2.76
2.98
2.67
3.0
2.85
2.82
2.97
2.84
2.92
2.98
2.79
3.08
2.82
2.89
2.87
2.88
3.01
2.86
2.95
3.05
2.9
3.25
3.14
3.12
3.13
2.84
2.93
2.88
2.76
2.9
2.66
3.27
4.36
4.98
3.23
2.49
2.43
2.25
2.45
2.79
2.65
2.75
2.86
2.62
3.0
2.76
2.91
2.95
2.82
3.0
2.89
2.89
3.09
2.82
3.18
2.98
3.06
3.14
2.92
3.04
2.93
2.75
2.91
2.61
2.78
2.74
2.7
2.87
2.63
2.81
2.91
2.69
2.91
2.72
2.77
2.9
2.65
2.93
2.85
2.71
2.95
2.65
2.85
2.81
2.67
2.86
2.83
2.98
3.06
2.93
3.24
2.95
2.89
2.83
2.53
2.83
2.64
2.56
2.77
3.18
4.73
4.82
2.54
2.28
1.88
2.34
2.58
2.48
2.71
2.5
2.62
2.68
2.5
2.74
2.62
2.67
2.91
2.61
2.97
2.68
2.89
3.02
2.89
2.96
2.92
2.92
3.07
2.86
2.91
2.81
2.69
2.84
2.7
2.76
2.69
2.71
2.97
2.74
2.9
2.89
2.71
2.92
2.71
2.77
2.84
2.71
2.88
2.78
2.77
2.82
2.7
2.87
2.73
2.66
2.93
2.79
2.93
3.02
3.07
3.19
2.96
2.84
2.86
2.61
2.86
2.62
2.66
2.7
3.4
5.0
4.69
2.59
2.16
1.93
2.59
2.56
2.59
2.67
2.53
2.82
2.71
2.62
2.88
2.68
2.89
2.91
2.77
2.91
2.93
2.96
2.97
2.91
3.03
2.99
3.06
3.06
2.79
3.0
2.82
2.76
2.81
2.61
2.89
2.85
2.61
2.91
2.83
2.88
2.87
2.72
3.01
2.73
2.85
2.97
2.74
2.95
2.7
2.79
2.84
2.65
2.91
2.71
2.73
2.93
2.71
2.93
2.93
2.86
3.14
2.97
3.07
3.07
2.79
2.86
2.7
2.71
2.73
2.45
3.07
4.15
5.0
3.7
2.18
2.16
2.23
2.56
2.65
2.57
2.74
2.71
2.67
2.86
2.66
2.81
2.84
2.72
2.92
2.85
2.93
3.06
2.93
3.18
2.92
2.98
3.06
2.83
3.05
2.83
2.91
2.92
2.7
2.87
2.74
2.73
2.88
2.67
2.85
2.93
2.71
2.97
2.71
2.91
2.93
2.72
2.94
2.71
2.86
2.9
2.74
2.88
2.79
2.66
2.89
2.69
2.92
2.71
2.82
3.03
2.79
3.04
3.13
3.06
3.13
2.78
2.79
2.67
2.68
2.84
2.51
2.72
3.52
4.7
4.52
2.32
2.3
2.09
2.33
2.73
2.64
2.55
2.72
2.55
2.8
2.61
2.66
2.84
2.64
2.88
2.9
2.81
2.94
2.83
2.99
3.05
2.93
3.09
2.86
2.91
2.96
2.67
2.93
2.66
2.71
2.88
2.7
2.86
2.74
2.76
2.82
2.74
2.93
2.85
2.86
2.99
2.7
2.95
2.87
2.71
2.92
2.7
2.76
2.85
2.67
2.97
2.82
2.92
3.14
3.0
3.12
2.82
2.8
2.83
2.62
2.78
2.61
2.59
3.18
4.14
4.95
2.93
2.41
2.46
1.96
2.62
2.66
2.52
2.8
2.56
2.77
2.77
2.71
2.96
2.78
2.86
2.94
2.77
3.0
2.84
2.85
3.07
2.95
3.07
3.06
2.92
3.05
2.77
2.82
2.77
2.64
2.93
2.66
2.81
2.88
2.73
2.91
2.84
2.84
2.96
2.71
3.02
2.85
2.78
2.92
2.84
2.93
2.88
2.76
2.99
2.73
2.86
2.88
2.83
3.06
3.0
3.24
3.21
2.97
2.98
2.85
2.74
2.83
2.63
2.82
2.71
3.55
4.99
4.19
2.61
2.45
2.13
2.6
2.55
2.81
2.71
2.72
2.96
2.77
2.93
2.94
2.83
3.05
2.86
3.01
3.04
2.92
3.12
2.97
3.04
3.15
3.01
3.17
3.06
2.9
3.09
2.73
2.9
2.78
2.78
2.93
2.61
2.95
2.86
2.78
3.0
2.78
2.85
2.95
2.77
2.92
2.76
2.78
2.94
2.71
2.9
2.78
2.77
2.9
2.69
2.91
2.83
2.76
3.07
2.89
3.13
3.13
3.07
3.02
2.78
2.77
2.83
2.7
2.84
2.6
3.18
4.71
5.0
3.16
2.15
2.1
2.45
2.55
2.76
2.62
2.57
2.8
2.7
2.9
2.81
2.74
2.93
2.79
2.93
2.93
2.82
3.11
2.97
2.96
3.12
2.94
3.12
2.99
2.91
3.01
2.73
2.84
2.78
2.73
2.82
2.69
2.79
2.83
2.68
2.94
2.78
2.83
2.86
2.68
3.0
2.79
2.84
2.92
2.83
2.96
2.82
2.87
2.93
2.73
2.97
2.79
2.8
3.06
2.8
3.06
3.1
3.05
3.23
2.97
3.03
2.86
2.61
2.91
2.68
2.7
2.81
3.59
5.0
4.52
2.35
2.23
1.99
2.65
2.47
2.62
2.82
2.55
2.8
2.76
2.71
2.9
2.73
2.89
2.96
2.8
3.04
2.91
3.04
3.14
2.86
3.2
3.02
3.02
2.96
2.9
2.91
2.79
2.7
2.87
2.67
2.84
2.75
2.79
2.88
2.7
2.88
2.82
2.73
3.06
2.72
2.86
2.92
2.77
2.96
2.68
2.79
2.89
2.67
2.85
2.7
2.78
2.87
2.74
2.84
2.71
2.76
2.91
2.74
2.93
3.03
2.99
3.15
2.91
2.87
2.77
2.56
2.74
2.59
2.54
2.96
4.14
5.0
3.53
2.25
2.11
2.03
2.6
2.55
2.55
2.71
2.48
2.73
2.72
2.59
2.86
2.7
2.83
2.86
2.71
3.02
2.81
2.96
3.08
2.86
3.17
3.02
2.93
3.07
2.8
2.94
2.78
2.81
2.88
2.65
2.83
2.84
2.74
2.88
2.78
2.86
2.86
2.8
2.99
2.8
2.86
2.91
2.74
2.9
2.77
2.75
2.93
2.66
2.86
2.74
2.84
2.85
2.62
2.92
2.76
2.85
3.0
2.91
3.13
3.14
2.92
2.95
2.65
2.72
2.78
2.57
2.65
2.88
4.11
5.0
3.03
2.5
2.16
2.1
2.56
2.44
2.61
2.53
2.56
2.86
2.53
2.8
2.73
2.65
2.86
2.67
2.78
2.91
2.74
3.07
2.91
2.97
3.09
2.87
3.02
2.85
2.81
2.94
2.66
2.76
2.72
2.7
2.88
2.56
2.83
2.79
2.68
2.91
2.73
2.89
2.91
2.71
3.0
2.73
2.84
2.87
2.68
2.89
2.72
2.73
2.84
2.71
2.97
2.79
2.74
2.94
2.72
2.97
2.9
2.88
3.21
3.09
3.09
3.02
2.78
2.88
2.66
2.76
2.79
2.57
3.05
3.97
5.0
3.77
2.3
2.39
2.18
2.48
2.77
2.58
2.72
2.77
2.7
2.89
2.71
2.85
2.83
2.72
3.09
2.8
2.97
3.0
3.0
3.16
2.97
3.04
3.2
2.97
3.08
2.86
2.93
2.89
2.71
2.9
2.79
2.79
2.91
2.71
2.86
2.84
2.69
3.03
2.77
2.93
2.87
2.79
2.96
2.71
2.84
2.85
2.61
2.95
2.71
2.71
2.9
2.64
2.91
2.72
2.76
2.89
2.67
2.91
2.94
2.91
3.3
3.03
3.09
2.91
2.73
2.8
2.65
2.73
2.68
2.64
3.7
4.97
4.55
2.52
2.18
2.23
2.48
2.56
2.77
2.58
2.79
2.75
2.66
2.85
2.72
2.82
2.89
2.67
3.07
2.83
2.92
3.1
2.84
3.18
3.0
2.97
3.12
2.86
3.05
2.88
2.8
2.86
2.68
2.85
2.72
2.7
2.93
2.68
2.88
2.91
2.71
2.99
2.78
2.88
2.93
2.73
2.98
2.86
2.78
2.93
2.74
2.93
2.79
2.8
2.88
2.7
2.95
2.86
2.78
3.0
2.88
3.12
3.11
3.1
3.23
3.02
2.96
2.84
2.79
2.86
2.71
2.65
2.93
3.79
5.0
4.26
2.32
2.3
2.08
2.68
2.69
2.56
2.81
2.6
2.91
2.71
2.68
2.92
2.71
2.77
2.97
2.77
3.09
2.88
2.98
3.12
2.91
3.1
2.96
3.07
3.13
2.78
2.91
2.71
2.71
2.85
2.58
2.82
2.77
2.64
2.9
2.74
2.83
2.83
2.77
2.93
2.74
2.79
2.85
2.7
2.91
2.78
2.8
2.91
2.69
2.87
2.68
2.64
2.84
2.6
2.82
2.7
2.7
3.03
2.78
3.06
3.07
2.92
3.02
2.65
2.69
2.71
2.48
2.73
2.52
2.93
4.38
4.99
3.17
2.23
1.99
2.31
2.42
2.61
2.51
2.61
2.83
2.6
2.71
2.81
2.63
2.89
2.68
2.82
2.89
2.72
3.0
2.94
2.91
3.13
2.93
3.11
2.94
2.83
2.93
2.71
2.77
2.71
2.7
2.82
2.68
2.78
2.83
2.77
2.86
2.74
2.86
2.85
2.74
2.93
2.79
2.78
2.94
2.71
2.93
2.79
2.83
2.97
2.7
2.89
2.85
2.74
2.96
2.77
2.93
3.05
2.86
3.21
3.1
3.11
3.09
2.81
2.88
2.71
2.77
2.83
2.58
3.33
4.49
4.99
3.02
2.33
2.21
2.36
2.6
2.76
2.6
2.71
2.79
2.73
2.9
2.7
2.89
2.96
2.74
3.07
2.86
2.98
3.11
2.96
3.13
3.12
3.03
3.23
2.98
3.15
2.93
2.82
2.97
2.7
2.8
2.8
2.7
2.97
2.77
2.87
2.94
2.74
2.97
2.76
2.89
2.95
2.8
3.0
2.78
2.84
2.97
2.76
2.89
2.79
2.79
2.95
2.74
2.83
2.83
2.72
2.92
2.65
2.91
3.11
2.86
3.29
3.04
3.12
2.96
2.63
2.89
2.66
2.7
2.74
2.65
3.68
4.96
4.59
2.56
2.1
2.15
2.48
2.47
2.67
2.56
2.73
2.69
2.6
2.86
2.67
2.76
2.9
2.74
2.93
2.8
2.91
3.09
2.92
3.03
3.07
3.0
3.13
2.81
2.97
2.89
2.64
2.92
2.56
2.74
2.89
2.66
2.86
2.66
2.81
2.85
2.7
2.9
2.78
2.84
2.84
2.7
2.8
2.76
2.71
2.8
2.58
2.75
2.7
2.55
2.86
2.54
2.74
2.77
2.6
2.83
2.65
2.76
2.88
2.74
3.0
3.05
2.97
3.02
2.7
2.73
2.66
2.64
2.7
2.39
2.99
4.25
5.0
3.65
2.19
2.14
2.24
2.52
2.71
2.51
2.64
2.72
2.64
2.86
2.71
2.77
2.89
2.78
2.93
2.83
2.93
3.09
2.86
3.07
3.09
2.94
3.17
2.88
3.0
2.96
2.74
2.85
2.71
2.82
2.78
2.71
2.87
2.7
2.84
2.91
2.71
2.97
2.83
2.82
2.9
2.83
2.99
2.89
2.82
3.04
2.78
2.9
2.88
2.79
2.94
2.72
2.86
2.87
2.73
3.01
2.76
2.88
2.91
2.84
3.13
3.05
3.11
3.13
2.84
3.04
2.73
2.68
2.93
2.61
2.77
3.3
4.49
4.96
2.56
2.58
2.23
2.24
2.7
2.62
2.68
2.72
2.7
2.85
2.71
2.7
2.88
2.71
2.94
2.83
2.86
3.01
2.86
3.06
3.1
2.97
3.11
2.92
3.0
2.95
2.79
2.89
2.65
2.74
2.79
2.62
2.87
2.67
2.69
2.78
2.66
2.86
2.8
2.77
2.93
2.64
2.94
2.82
2.7
2.9
2.71
2.77
2.72
2.71
2.83
2.73
2.82
2.77
2.71
3.01
2.85
3.02
3.18
2.85
2.93
2.71
2.66
2.79
2.6
2.7
2.74
3.54
4.88
4.09
2.43
2.47
1.96
2.45
2.41
2.72
2.71
2.53
2.85
2.7
2.78
2.89
2.73
2.88
2.77
2.92
2.97
2.84
3.12
3.02
2.93
3.23
2.95
3.09
3.02
2.89
3.05
2.67
2.77
2.86
2.67
2.84
2.69
2.76
2.86
2.71
2.96
2.74
2.84
3.05
2.71
2.93
2.9
2.81
2.97
2.71
2.86
2.9
2.78
2.95
2.71
2.81
2.85
2.76
2.9
2.74
2.83
3.06
2.8
3.2
3.11
3.07
3.07
2.77
2.88
2.71
2.68
2.88
2.46
3.03
4.23
5.0
3.83
2.23
2.2
2.26
2.49
2.69
2.65
2.65
2.79
2.62
2.86
2.82
2.67
2.94
2.72
2.93
2.88
2.79
3.09
2.92
3.01
3.03
2.94
3.15
2.92
2.92
2.96
2.77
2.87
2.64
2.74
2.92
2.58
2.88
2.74
2.75
2.91
2.71
2.85
2.82
2.82
2.91
2.77
2.88
2.86
2.73
2.96
2.74
2.79
2.82
2.72
2.92
2.69
2.77
2.88
2.71
2.93
2.85
2.92
3.12
3.0
3.1
2.95
2.71
2.83
2.65
2.74
2.7
2.56
3.2
4.42
5.0
3.3
2.09
2.18
2.27
2.61
2.72
2.46
2.79
2.67
2.73
2.85
2.67
2.87
2.83
2.79
3.05
2.84
3.0
3.02
2.99
3.15
3.0
3.15
3.12
2.97
3.11
2.86
2.88
2.85
2.71
2.89
2.71
2.79
2.87
2.74
3.0
2.84
2.86
3.04
2.71
2.99
2.92
2.78
2.94
2.76
3.02
2.84
2.78
3.02
2.74
2.8
2.92
2.74
3.0
2.91
2.97
3.24
3.03
3.16
2.94
2.88
2.89
2.66
2.81
2.73
2.65
3.6
4.56
4.74
2.62
2.48
2.38
2.26
2.65
2.78
2.52
2.81
2.77
2.74
2.86
2.83
2.94
2.86
2.82
3.02
2.84
3.06
3.03
3.03
3.18
3.02
3.1
3.11
2.95
3.0
2.77
2.77
2.85
2.56
2.84
2.7
2.65
2.9
2.74
2.86
2.85
2.74
2.91
2.76
2.9
2.88
2.73
2.93
2.87
2.99
2.92
2.74
2.99
2.77
2.79
2.91
2.7
2.94
2.84
2.95
3.16
3.02
3.29
3.04
2.91
2.97
2.66
2.85
2.81
2.61
2.93
3.19
4.75
5.0
2.62
2.6
2.01
2.42
2.67
2.57
2.84
2.71
2.74
2.89
2.6
2.94
2.86
2.72
2.97
2.86
2.96
3.04
2.95
3.16
3.01
3.15
3.11
2.91
3.18
2.88
2.92
2.84
2.77
2.86
2.71
2.76
2.83
2.64
2.86
2.78
2.74
2.96
2.66
2.93
2.82
2.79
3.05
2.76
2.88
2.93
2.76
2.88
2.74
2.84
2.87
2.74
2.98
2.76
2.86
2.9
2.71
2.97
2.79
2.73
3.05
2.9
3.1
3.14
3.0
3.11
2.77
2.79
2.7
2.59
2.77
2.55
2.86
4.22
5.0
3.96
2.2
1.96
2.32
2.42
2.65
2.53
2.62
2.73
2.57
2.81
2.72
2.66
2.86
2.71
2.84
2.81
2.78
3.03
2.86
2.97
3.07
2.97
3.13
2.91
2.87
2.86
2.67
2.76
2.59
2.61
2.72
2.53
2.78
2.73
2.65
2.87
2.6
2.8
2.81
2.65
2.93
2.73
2.83
2.95
2.71
2.88
2.77
2.81
2.93
2.67
2.85
2.78
2.77
2.97
2.62
2.89
2.79
2.77
2.86
2.66
2.84
2.92
2.83
3.17
2.99
3.08
2.94
2.7
2.83
2.55
2.76
2.71
2.61
3.55
4.91
4.67
2.61
2.29
2.18
2.42
2.58
2.71
2.51
2.82
2.81
2.7
2.96
2.77
2.92
2.96
2.89
3.0
2.79
3.08
3.15
3.01
3.2
3.11
3.18
3.19
2.93
3.1
2.83
2.83
2.96
2.66
2.77
2.91
2.6
2.93
2.7
2.85
2.86
2.77
2.92
2.79
2.93
2.98
2.74
3.01
2.86
2.84
2.94
2.73
2.95
2.78
2.79
2.96
2.68
2.86
2.88
2.81
3.12
2.93
3.23
3.15
2.91
2.97
2.72
2.77
2.77
2.56
2.79
2.88
4.0
5.0
3.59
2.5
2.32
2.03
2.55
2.56
2.68
2.72
2.71
2.98
2.71
2.8
2.95
2.78
2.92
2.91
2.89
3.06
2.96
3.16
3.07
3.09
3.29
2.98
3.21
3.02
2.87
2.99
2.78
2.84
2.79
2.76
2.93
2.69
2.77
2.85
2.72
2.98
2.73
2.88
3.03
2.81
3.02
2.86
2.83
3.02
2.75
2.89
2.91
2.86
2.98
2.69
2.9
2.9
2.77
2.96
2.7
2.84
2.89
2.73
3.18
2.89
3.06
3.27
2.95
3.12
2.78
2.71
2.87
2.65
2.73
2.61
2.83
4.49
5.0
3.58
2.28
2.03
2.34
2.43
2.57
2.65
2.57
2.8
2.67
2.7
2.85
2.65
2.91
2.7
2.8
3.01
2.81
3.09
2.95
2.96
3.13
3.0
3.11
3.04
2.91
2.93
2.71
2.83
2.74
2.6
2.86
2.67
2.74
2.88
2.65
2.88
2.83
2.77
2.97
2.74
3.0
2.89
2.85
3.03
2.83
2.96
2.9
2.83
2.98
2.89
2.87
2.96
2.79
3.05
2.82
2.88
2.95
2.77
2.92
2.87
2.88
2.96
2.87
3.12
3.12
3.14
3.31
2.85
2.93
2.87
2.77
2.88
2.71
2.71
3.2
4.5
5.0
3.37
2.29
2.21
2.32
2.79
2.62
2.67
2.88
2.66
2.92
2.79
2.76
2.96
2.79
2.97
2.93
2.87
3.14
2.94
3.13
3.25
3.06
3.29
3.13
3.13
3.17
2.91
2.93
2.84
2.84
2.91
2.71
2.9
2.86
2.68
3.0
2.71
2.9
2.91
2.76
2.97
2.77
2.92
2.8
2.85
3.02
2.71
2.84
2.93
2.76
2.92
2.81
2.78
2.95
2.74
2.94
2.84
2.74
3.0
2.82
2.94
2.87
2.86
2.99
3.03
3.19
3.16
2.96
3.02
2.78
2.77
2.84
2.71
2.84
2.89
3.88
5.0
3.94
2.48
2.41
1.99
2.61
2.56
2.73
2.67
2.67
2.88
2.68
2.86
2.86
2.7
2.96
2.82
2.93
3.05
2.9
3.23
2.95
3.11
3.24
3.03
3.12
3.03
2.91
2.97
2.73
2.85
2.78
2.77
2.88
2.69
2.82
2.83
2.74
2.97
2.83
2.84
2.95
2.74
2.97
2.84
2.82
2.97
2.68
2.95
2.82
2.78
2.93
2.81
2.93
2.84
2.74
2.94
2.72
2.89
2.87
2.73
3.17
2.96
3.14
3.17
2.96
3.05
2.77
2.73
2.88
2.62
2.81
2.8
3.48
4.97
4.58
2.64
2.48
2.12
2.59
2.43
2.81
2.82
2.73
2.89
2.73
2.88
2.9
2.77
2.99
2.74
2.99
3.11
2.91
3.18
3.11
3.11
3.18
3.0
3.17
3.01
2.99
2.97
2.8
2.83
2.86
2.74
2.89
2.71
2.82
2.84
2.67
2.95
2.84
2.86
3.0
2.77
3.01
2.8
2.88
2.99
2.82
3.0
2.85
2.87
2.94
2.77
2.91
2.87
2.82
2.98
2.71
2.92
2.91
2.73
2.97
2.94
3.01
3.06
2.99
3.27
3.0
2.93
2.98
2.72
2.81
2.84
2.76
2.81
2.93
4.42
5.0
3.66
2.46
2.08
2.32
2.65
2.61
2.78
2.62
2.73
2.81
2.71
2.86
2.79
2.79
2.86
2.72
2.99
2.92
2.95
3.1
2.93
3.1
3.04
2.95
3.11
2.81
2.91
2.81
2.67
2.77
2.71
2.73
2.79
2.6
2.83
2.67
2.69
2.83
2.77
2.82
2.8
2.7
2.84
2.65
2.8
2.76
2.72
2.84
2.69
2.82
2.74
2.67
2.86
2.7
2.71
2.88
2.62
2.87
2.72
2.7
2.9
2.79
2.98
3.04
2.95
3.06
2.72
2.7
2.61
2.6
2.77
2.51
2.71
3.61
4.89
4.62
2.3
2.1
2.13
2.3
2.68
2.52
2.53
2.67
2.55
2.77
2.67
2.65
2.88
2.59
2.8
2.88
2.7
3.03
2.89
3.06
3.08
2.89
3.06
2.93
2.92
2.96
2.74
2.84
2.7
2.7
2.85
2.6
2.79
2.65
2.65
2.85
2.64
2.77
2.8
2.7
2.97
2.74
2.84
2.88
2.69
2.91
2.7
2.77
2.87
2.67
2.85
2.65
2.77
2.86
2.61
2.83
2.84
2.83
3.05
2.92
3.05
2.99
2.74
2.87
2.58
2.76
2.76
2.53
2.88
3.61
4.91
4.06
2.16
2.52
2.01
2.38
2.73
2.54
2.79
2.62
2.71
2.85
2.65
2.83
2.83
2.77
2.94
2.76
2.96
3.01
2.9
3.15
2.96
3.09
3.09
3.02
2.98
2.84
2.81
2.81
2.6
2.82
2.66
2.67
2.74
2.66
2.77
2.74
2.7
2.87
2.62
2.83
2.83
2.67
2.88
2.69
2.84
2.79
2.67
2.88
2.77
2.7
2.78
2.64
2.84
2.82
2.83
3.07
2.97
3.14
3.03
2.79
2.98
2.61
2.74
2.71
2.55
2.82
3.17
4.57
4.8
2.64
2.64
2.11
2.32
2.64
2.56
2.78
2.71
2.7
2.86
2.72
2.93
2.88
2.8
3.02
2.77
2.93
3.04
2.97
3.13
3.03
3.13
3.17
3.0
3.14
2.95
2.93
2.84
2.73
2.88
2.65
2.69
2.92
2.7
2.93
2.77
2.78
2.92
2.72
2.89
2.91
2.71
3.02
2.78
2.96
2.93
2.78
2.99
2.77
2.78
2.91
2.66
2.95
2.84
2.83
2.96
2.77
3.0
3.01
3.0
3.24
2.93
3.02
2.88
2.73
2.83
2.7
2.73
2.74
2.8
4.36
5.0
3.62
2.37
1.93
2.34
2.55
2.5
2.74
2.61
2.76
2.7
2.69
2.86
2.66
2.82
2.84
2.79
3.04
2.88
3.05
3.1
2.96
3.17
2.97
3.07
3.07
2.86
2.99
2.83
2.73
2.9
2.61
2.88
2.76
2.78
2.83
2.65
2.88
2.85
2.82
2.96
2.82
2.88
2.91
2.72
3.0
2.79
2.83
2.89
2.65
2.96
2.79
2.79
2.87
2.67
2.95
2.72
2.75
2.93
2.88
3.1
3.05
3.09
3.21
2.79
2.86
2.79
2.64
2.81
2.58
2.61
3.32
4.64
5.0
2.91
2.2
2.13
2.29
2.67
2.51
2.57
2.82
2.58
2.9
2.67
2.77
2.94
2.73
2.86
2.89
2.79
3.09
2.9
3.03
3.09
2.93
3.19
2.94
2.97
2.93
2.84
2.95
2.7
2.77
2.81
2.66
2.83
2.7
2.77
2.96
2.71
2.86
2.85
2.73
3.04
2.78
2.88
2.92
2.69
2.93
2.78
2.83
2.9
2.67
2.98
2.73
2.78
2.91
2.71
2.93
2.78
2.86
2.94
2.88
3.2
3.02
3.02
3.02
2.71
2.82
2.78
2.61
2.79
2.71
3.78
5.0
3.96
2.54
2.33
2.08
2.54
2.47
2.64
2.57
2.57
2.73
2.67
2.88
2.72
2.76
2.92
2.76
2.93
2.92
2.77
3.18
2.94
3.1
3.06
2.92
3.2
2.84
2.92
2.92
2.7
2.84
2.7
2.66
2.92
2.64
2.8
2.84
2.72
2.85
2.71
2.85
2.79
2.76
2.97
2.74
2.86
2.88
2.78
2.95
2.73
2.81
2.84
2.66
2.9
2.73
2.77
3.01
2.8
3.15
3.07
2.97
3.01
2.71
2.83
2.73
2.64
2.78
2.52
3.09
4.39
4.79
3.27
2.45
2.25
2.25
2.36
2.71
2.61
2.66
2.78
2.67
2.88
2.83
2.73
2.93
2.74
2.89
2.91
2.86
3.09
2.84
3.09
3.13
2.91
3.02
2.97
2.92
2.95
2.67
2.91
2.67
2.71
2.84
2.63
2.85
2.73
2.77
2.92
2.74
2.89
2.82
2.78
2.97
2.71
2.87
2.86
2.8
2.9
2.73
2.88
2.83
2.68
2.93
2.77
2.71
2.88
2.74
2.93
2.78
2.96
3.08
2.96
3.17
2.98
2.84
2.86
2.71
2.8
2.71
2.6
2.76
3.11
4.62
5.0
2.72
2.45
2.02
2.26
2.66
2.52
2.7
2.64
2.65
2.77
2.6
2.82
2.71
2.7
2.94
2.76
2.95
2.93
2.91
3.11
2.88
3.13
3.12
2.85
3.05
2.87
2.91
2.86
2.66
2.89
2.61
2.73
2.83
2.65
2.83
2.79
2.71
2.9
2.74
2.78
2.82
2.83
2.93
2.7
2.86
2.88
2.68
2.85
2.69
2.8
2.9
2.62
2.92
2.74
2.85
2.81
2.72
2.93
2.66
2.78
2.87
2.71
2.96
3.0
3.02
3.17
2.93
2.96
2.72
2.62
2.83
2.59
2.65
2.78
3.24
4.96
4.95
2.75
2.18
1.96
2.48
2.51
2.5
2.7
2.54
2.77
2.68
2.7
2.85
2.62
2.79
2.84
2.77
3.02
2.78
3.05
3.09
2.95
3.14
2.93
3.06
3.11
2.72
2.92
2.73
2.71
2.78
2.57
2.79
2.69
2.68
2.88
2.7
2.82
2.81
2.73
2.91
2.78
2.85
2.88
2.73
2.95
2.74
2.84
2.85
2.73
2.95
2.67
2.8
2.9
2.7
2.86
2.76
2.73
2.86
2.71
2.84
2.86
2.78
2.96
2.72
3.01
3.06
3.0
3.2
3.0
2.91
2.9
2.67
2.86
2.74
2.71
2.91
3.59
5.0
4.51
2.48
2.47
2.02
2.57
2.71
2.6
2.85
2.65
2.88
2.87
2.7
2.96
2.8
2.93
2.99
2.82
3.07
2.94
3.09
3.13
3.06
3.31
3.08
3.06
3.15
2.8
3.02
2.85
2.7
2.93
2.7
2.9
2.84
2.7
2.97
2.74
2.84
2.84
2.77
2.93
2.83
2.91
2.9
2.78
2.97
2.7
2.8
2.93
2.74
2.87
2.79
2.79
2.92
2.73
2.92
2.74
2.79
2.93
2.71
2.89
2.91
2.79
3.09
3.0
3.13
3.1
2.79
3.0
2.76
2.7
2.85
2.55
2.93
3.58
4.84
4.44
2.27
2.63
2.13
2.29
2.8
2.52
2.64
2.71
2.74
2.83
2.66
2.79
2.86
2.67
2.95
2.76
2.93
3.07
2.84
3.21
3.0
2.94
3.17
2.94
3.07
2.9
2.83
2.88
2.61
2.83
2.74
2.66
2.82
2.7
2.83
2.79
2.76
2.89
2.76
2.88
2.86
2.76
2.93
2.84
2.81
2.93
2.64
2.96
2.78
2.77
2.93
2.71
2.87
2.76
2.73
2.96
2.64
2.88
2.82
2.77
2.91
2.79
2.97
3.04
2.89
3.23
3.02
3.06
3.03
2.72
2.9
2.77
2.74
2.79
2.83
4.11
5.0
4.07
2.53
2.08
2.19
2.56
2.6
2.78
2.63
2.74
2.84
2.64
2.91
2.71
2.76
2.84
2.77
3.03
2.9
2.86
3.06
2.95
3.12
3.02
2.95
3.12
2.78
2.97
2.79
2.68
2.88
2.6
2.76
2.74
2.64
2.84
2.61
2.79
2.85
2.63
2.82
2.83
2.8
2.91
2.73
2.94
2.77
2.74
2.94
2.68
2.83
2.89
2.69
2.86
2.71
2.83
2.81
2.73
2.9
2.77
2.84
2.88
2.74
2.96
2.79
2.91
3.05
2.91
3.18
3.11
2.9
2.97
2.7
2.74
2.84
2.64
2.77
2.88
4.22
5.0
3.81
2.47
2.0
2.25
2.67
2.5
2.74
2.64
2.65
2.84
2.63
2.82
2.78
2.81
2.88
2.77
3.02
2.97
2.94
3.14
3.02
3.2
3.14
3.02
3.12
2.91
3.0
2.95
2.79
2.83
2.7
